;content of C:\2026\IF\Dr-IVAN\26-02-2026\FN.raw - (Diffrac Plus V4 file)
_FILEVERSION = 3
_SAMPLE = FN
_+SAMPLE
_USER = Lab Manager
_GONIOMETER_CODE = 21
_STAGE_CODE = 7
; Goniometer : D8 theta/theta, stage : Chi drive
_SAMPLE_CHANGER_CODE = 0
_ATTACHMENTS_CODE = 0
_GONIOMETER_RADIUS = 280
_SOLLER_SLITS = 2
_FIXED_DETSLIT = 6
_MONOCHROMATOR = 0
; Incident beam monochromator : None
_BETA_FILTER = N
_ANALYZER_CODE = 0
; Received beam analyzer : None
_DATEMEASURED = 26-Feb-2026 10:53:59
_RUNTIME = 1739.949
_WL_UNIT = A
_WL1 = 1.540600
_WL2 = 1.544390
_WL3 = 1.392220
_WLRATIO = 0.500000
_ANODE = Cu
_V4_INF_USER = Lab Manager
_V4_INF_SAMPLEID = FN
_V4_INF_CREATOR = BrmlToV4Converter
_V4_INF_CREATOR_VERSION = 7.3.1.0

; Data for range 1
_DRIVE = COUPLED
_STEPTIME = 115.2
_STEPSIZE = 0.020508
_STEPMODE = C
_START = 4.000000
_THETA = 2.000000
_2THETA = 4.000000
_PHI = 43.820313
_DIVERGENCE = 0.379996
_DETECTORSLIT = out
_TIMESTARTED = 0
_ROTATION_SPEED = 15
_KV = 40
_MA = 35
_RANGE_WL = 1.541800
_3DPLANE = 0
_V4_PSD2THETA = 9999.000000
_V4_PSDCHANNEL1 = 0
_V4_PSDAPERTURE = 2.953109
_V4_PSDTYPE = 5
_V4_PSDFIXED = 0
_V4_COUNTERS_MASK = 1
_V4_DRIVES_MASK = 0
_V4_ENCODERS_MASK = 0
_2THETACOUNTS = 1
; 2THETA	Cnt2_D1	
4.000000	472.000000	
4.020508	456.000000	
4.041015	486.000000	
4.061523	470.000000	
4.082031	475.000000	
4.102539	467.000000	
4.123046	451.000000	
4.143554	419.000000	
4.164062	426.000000	
4.184569	463.000000	
4.205077	440.000000	
4.225585	445.000000	
4.246092	446.000000	
4.266600	414.000000	
4.287108	436.000000	
4.307616	429.000000	
4.328123	412.000000	
4.348631	421.000000	
4.369139	431.000000	
4.389646	408.000000	
4.410154	404.000000	
4.430662	387.000000	
4.451169	397.000000	
4.471677	371.000000	
4.492185	366.000000	
4.512693	424.000000	
4.533200	426.000000	
4.553708	389.000000	
4.574216	407.000000	
4.594723	399.000000	
4.615231	381.000000	
4.635739	417.000000	
4.656246	365.000000	
4.676754	380.000000	
4.697262	391.000000	
4.717770	390.000000	
4.738277	356.000000	
4.758785	367.000000	
4.779293	370.000000	
4.799800	374.000000	
4.820308	365.000000	
4.840816	362.000000	
4.861323	375.000000	
4.881831	385.000000	
4.902339	389.000000	
4.922847	391.000000	
4.943354	374.000000	
4.963862	391.000000	
4.984370	328.000000	
5.004877	355.000000	
5.025385	368.000000	
5.045893	358.000000	
5.066400	353.000000	
5.086908	385.000000	
5.107416	323.000000	
5.127924	337.000000	
5.148431	393.000000	
5.168939	377.000000	
5.189447	395.000000	
5.209954	376.000000	
5.230462	381.000000	
5.250970	372.000000	
5.271477	345.000000	
5.291985	339.000000	
5.312493	345.000000	
5.333001	383.000000	
5.353508	356.000000	
5.374016	381.000000	
5.394524	364.000000	
5.415031	373.000000	
5.435539	370.000000	
5.456047	344.000000	
5.476554	338.000000	
5.497062	393.000000	
5.517570	359.000000	
5.538078	403.000000	
5.558585	343.000000	
5.579093	338.000000	
5.599601	361.000000	
5.620108	361.000000	
5.640616	380.000000	
5.661124	359.000000	
5.681632	352.000000	
5.702139	348.000000	
5.722647	350.000000	
5.743155	373.000000	
5.763662	333.000000	
5.784170	381.000000	
5.804678	388.000000	
5.825185	376.000000	
5.845693	333.000000	
5.866201	354.000000	
5.886709	334.000000	
5.907216	393.000000	
5.927724	371.000000	
5.948232	360.000000	
5.968739	365.000000	
5.989247	366.000000	
6.009755	364.000000	
6.030262	342.000000	
6.050770	380.000000	
6.071278	347.000000	
6.091786	365.000000	
6.112293	355.000000	
6.132801	390.000000	
6.153309	366.000000	
6.173816	356.000000	
6.194324	386.000000	
6.214832	366.000000	
6.235339	330.000000	
6.255847	357.000000	
6.276355	358.000000	
6.296863	355.000000	
6.317370	356.000000	
6.337878	383.000000	
6.358386	341.000000	
6.378893	335.000000	
6.399401	355.000000	
6.419909	349.000000	
6.440416	384.000000	
6.460924	343.000000	
6.481432	391.000000	
6.501940	339.000000	
6.522447	383.000000	
6.542955	355.000000	
6.563463	352.000000	
6.583970	323.000000	
6.604478	384.000000	
6.624986	363.000000	
6.645493	364.000000	
6.666001	373.000000	
6.686509	352.000000	
6.707017	344.000000	
6.727524	321.000000	
6.748032	357.000000	
6.768540	347.000000	
6.789047	354.000000	
6.809555	353.000000	
6.830063	361.000000	
6.850570	390.000000	
6.871078	362.000000	
6.891586	361.000000	
6.912094	391.000000	
6.932601	373.000000	
6.953109	344.000000	
6.973617	345.000000	
6.994124	347.000000	
7.014632	413.000000	
7.035140	365.000000	
7.055647	367.000000	
7.076155	381.000000	
7.096663	364.000000	
7.117171	373.000000	
7.137678	337.000000	
7.158186	348.000000	
7.178694	374.000000	
7.199201	340.000000	
7.219709	372.000000	
7.240217	364.000000	
7.260725	364.000000	
7.281232	370.000000	
7.301740	329.000000	
7.322248	354.000000	
7.342755	351.000000	
7.363263	385.000000	
7.383771	334.000000	
7.404278	368.000000	
7.424786	382.000000	
7.445294	367.000000	
7.465802	370.000000	
7.486309	387.000000	
7.506817	349.000000	
7.527325	351.000000	
7.547832	374.000000	
7.568340	378.000000	
7.588848	412.000000	
7.609355	385.000000	
7.629863	383.000000	
7.650371	366.000000	
7.670879	367.000000	
7.691386	420.000000	
7.711894	382.000000	
7.732402	388.000000	
7.752909	368.000000	
7.773417	405.000000	
7.793925	380.000000	
7.814432	379.000000	
7.834940	363.000000	
7.855448	373.000000	
7.875956	380.000000	
7.896463	352.000000	
7.916971	385.000000	
7.937479	366.000000	
7.957986	344.000000	
7.978494	382.000000	
7.999002	405.000000	
8.019509	390.000000	
8.040017	376.000000	
8.060525	369.000000	
8.081033	351.000000	
8.101540	385.000000	
8.122048	394.000000	
8.142556	398.000000	
8.163063	382.000000	
8.183571	391.000000	
8.204079	373.000000	
8.224586	410.000000	
8.245094	365.000000	
8.265602	402.000000	
8.286110	410.000000	
8.306617	394.000000	
8.327125	392.000000	
8.347633	409.000000	
8.368140	424.000000	
8.388648	400.000000	
8.409156	408.000000	
8.429663	397.000000	
8.450171	384.000000	
8.470679	390.000000	
8.491187	385.000000	
8.511694	387.000000	
8.532202	382.000000	
8.552710	407.000000	
8.573217	413.000000	
8.593725	369.000000	
8.614233	385.000000	
8.634740	411.000000	
8.655248	381.000000	
8.675756	410.000000	
8.696264	413.000000	
8.716771	383.000000	
8.737279	408.000000	
8.757787	434.000000	
8.778294	412.000000	
8.798802	388.000000	
8.819310	419.000000	
8.839818	391.000000	
8.860325	449.000000	
8.880833	436.000000	
8.901341	442.000000	
8.921848	401.000000	
8.942356	403.000000	
8.962864	420.000000	
8.983371	422.000000	
9.003879	405.000000	
9.024387	435.000000	
9.044895	423.000000	
9.065402	418.000000	
9.085910	398.000000	
9.106418	441.000000	
9.126925	463.000000	
9.147433	425.000000	
9.167941	441.000000	
9.188448	430.000000	
9.208956	432.000000	
9.229464	451.000000	
9.249972	443.000000	
9.270479	461.000000	
9.290987	438.000000	
9.311495	430.000000	
9.332002	433.000000	
9.352510	457.000000	
9.373018	403.000000	
9.393525	452.000000	
9.414033	465.000000	
9.434541	415.000000	
9.455049	462.000000	
9.475556	440.000000	
9.496064	448.000000	
9.516572	423.000000	
9.537079	458.000000	
9.557587	480.000000	
9.578095	434.000000	
9.598602	428.000000	
9.619110	409.000000	
9.639618	479.000000	
9.660126	469.000000	
9.680633	448.000000	
9.701141	472.000000	
9.721649	400.000000	
9.742156	444.000000	
9.762664	441.000000	
9.783172	486.000000	
9.803679	452.000000	
9.824187	457.000000	
9.844695	450.000000	
9.865203	447.000000	
9.885710	487.000000	
9.906218	464.000000	
9.926726	486.000000	
9.947233	515.000000	
9.967741	503.000000	
9.988249	454.000000	
10.008756	471.000000	
10.029264	503.000000	
10.049772	477.000000	
10.070280	501.000000	
10.090787	544.000000	
10.111295	535.000000	
10.131803	520.000000	
10.152310	558.000000	
10.172818	538.000000	
10.193326	567.000000	
10.213833	615.000000	
10.234341	600.000000	
10.254849	671.000000	
10.275357	698.000000	
10.295864	722.000000	
10.316372	749.000000	
10.336880	801.000000	
10.357387	819.000000	
10.377895	889.000000	
10.398403	969.000000	
10.418911	979.000000	
10.439418	1069.000000	
10.459926	1113.000000	
10.480434	1161.000000	
10.500941	1297.000000	
10.521449	1411.000000	
10.541957	1460.000000	
10.562464	1623.000000	
10.582972	1788.000000	
10.603480	1954.000000	
10.623988	2099.000000	
10.644495	2020.000000	
10.665003	1994.000000	
10.685511	1818.000000	
10.706018	1591.000000	
10.726526	1352.000000	
10.747034	1063.000000	
10.767541	930.000000	
10.788049	856.000000	
10.808557	804.000000	
10.829065	780.000000	
10.849572	722.000000	
10.870080	718.000000	
10.890588	699.000000	
10.911095	780.000000	
10.931603	743.000000	
10.952111	752.000000	
10.972618	766.000000	
10.993126	725.000000	
11.013634	721.000000	
11.034142	766.000000	
11.054649	746.000000	
11.075157	712.000000	
11.095665	806.000000	
11.116172	827.000000	
11.136680	802.000000	
11.157188	820.000000	
11.177695	896.000000	
11.198203	863.000000	
11.218711	984.000000	
11.239219	954.000000	
11.259726	1125.000000	
11.280234	1154.000000	
11.300742	1141.000000	
11.321249	1290.000000	
11.341757	1321.000000	
11.362265	1499.000000	
11.382772	1621.000000	
11.403280	1721.000000	
11.423788	1900.000000	
11.444296	2109.000000	
11.464803	2273.000000	
11.485311	2571.000000	
11.505819	2778.000000	
11.526326	3142.000000	
11.546834	3559.000000	
11.567342	3965.000000	
11.587849	4594.000000	
11.608357	5163.000000	
11.628865	5881.000000	
11.649373	6566.000000	
11.669880	6853.000000	
11.690388	6856.000000	
11.710896	6799.000000	
11.731403	6433.000000	
11.751911	6404.000000	
11.772419	6374.000000	
11.792926	6567.000000	
11.813434	6568.000000	
11.833942	6139.000000	
11.854450	5336.000000	
11.874957	4340.000000	
11.895465	3570.000000	
11.915973	2870.000000	
11.936480	2447.000000	
11.956988	2129.000000	
11.977496	1938.000000	
11.998004	1718.000000	
12.018511	1670.000000	
12.039019	1523.000000	
12.059527	1417.000000	
12.080034	1365.000000	
12.100542	1283.000000	
12.121050	1288.000000	
12.141557	1302.000000	
12.162065	1196.000000	
12.182573	1255.000000	
12.203081	1215.000000	
12.223588	1196.000000	
12.244096	1108.000000	
12.264604	1172.000000	
12.285111	1104.000000	
12.305619	1177.000000	
12.326127	1195.000000	
12.346634	1115.000000	
12.367142	1120.000000	
12.387650	1129.000000	
12.408158	1121.000000	
12.428665	1117.000000	
12.449173	1136.000000	
12.469681	1082.000000	
12.490188	1167.000000	
12.510696	1126.000000	
12.531204	1133.000000	
12.551711	1126.000000	
12.572219	1127.000000	
12.592727	1212.000000	
12.613235	1168.000000	
12.633742	1296.000000	
12.654250	1246.000000	
12.674758	1236.000000	
12.695265	1247.000000	
12.715773	1208.000000	
12.736281	1237.000000	
12.756788	1286.000000	
12.777296	1295.000000	
12.797804	1386.000000	
12.818312	1377.000000	
12.838819	1379.000000	
12.859327	1403.000000	
12.879835	1424.000000	
12.900342	1442.000000	
12.920850	1579.000000	
12.941358	1648.000000	
12.961865	1710.000000	
12.982373	1786.000000	
13.002881	1875.000000	
13.023389	1962.000000	
13.043896	2028.000000	
13.064404	2214.000000	
13.084912	2414.000000	
13.105419	2524.000000	
13.125927	2793.000000	
13.146435	2839.000000	
13.166942	3257.000000	
13.187450	3577.000000	
13.207958	3841.000000	
13.228466	4131.000000	
13.248973	4562.000000	
13.269481	5010.000000	
13.289989	5020.000000	
13.310496	5360.000000	
13.331004	5686.000000	
13.351512	5297.000000	
13.372019	5310.000000	
13.392527	4862.000000	
13.413035	4639.000000	
13.433543	4208.000000	
13.454050	3965.000000	
13.474558	3857.000000	
13.495066	3894.000000	
13.515573	3879.000000	
13.536081	3889.000000	
13.556589	3884.000000	
13.577097	3812.000000	
13.597604	3632.000000	
13.618112	3379.000000	
13.638620	2911.000000	
13.659127	2650.000000	
13.679635	2322.000000	
13.700143	2006.000000	
13.720650	1804.000000	
13.741158	1673.000000	
13.761666	1627.000000	
13.782174	1592.000000	
13.802681	1474.000000	
13.823189	1552.000000	
13.843697	1449.000000	
13.864204	1406.000000	
13.884712	1487.000000	
13.905220	1436.000000	
13.925727	1414.000000	
13.946235	1340.000000	
13.966743	1424.000000	
13.987251	1383.000000	
14.007758	1430.000000	
14.028266	1362.000000	
14.048774	1346.000000	
14.069281	1373.000000	
14.089789	1370.000000	
14.110297	1385.000000	
14.130804	1326.000000	
14.151312	1379.000000	
14.171820	1310.000000	
14.192328	1389.000000	
14.212835	1359.000000	
14.233343	1363.000000	
14.253851	1303.000000	
14.274358	1318.000000	
14.294866	1295.000000	
14.315374	1375.000000	
14.335881	1390.000000	
14.356389	1384.000000	
14.376897	1363.000000	
14.397405	1469.000000	
14.417912	1442.000000	
14.438420	1493.000000	
14.458928	1455.000000	
14.479435	1463.000000	
14.499943	1492.000000	
14.520451	1539.000000	
14.540958	1638.000000	
14.561466	1619.000000	
14.581974	1637.000000	
14.602482	1534.000000	
14.622989	1533.000000	
14.643497	1567.000000	
14.664005	1495.000000	
14.684512	1427.000000	
14.705020	1442.000000	
14.725528	1459.000000	
14.746035	1304.000000	
14.766543	1355.000000	
14.787051	1321.000000	
14.807559	1406.000000	
14.828066	1432.000000	
14.848574	1422.000000	
14.869082	1360.000000	
14.889589	1435.000000	
14.910097	1378.000000	
14.930605	1317.000000	
14.951112	1359.000000	
14.971620	1378.000000	
14.992128	1322.000000	
15.012636	1352.000000	
15.033143	1344.000000	
15.053651	1329.000000	
15.074159	1368.000000	
15.094666	1400.000000	
15.115174	1356.000000	
15.135682	1369.000000	
15.156190	1313.000000	
15.176697	1368.000000	
15.197205	1357.000000	
15.217713	1424.000000	
15.238220	1357.000000	
15.258728	1383.000000	
15.279236	1392.000000	
15.299743	1397.000000	
15.320251	1364.000000	
15.340759	1449.000000	
15.361267	1303.000000	
15.381774	1328.000000	
15.402282	1399.000000	
15.422790	1397.000000	
15.443297	1414.000000	
15.463805	1397.000000	
15.484313	1425.000000	
15.504820	1429.000000	
15.525328	1405.000000	
15.545836	1554.000000	
15.566344	1389.000000	
15.586851	1388.000000	
15.607359	1515.000000	
15.627867	1416.000000	
15.648374	1433.000000	
15.668882	1420.000000	
15.689390	1495.000000	
15.709897	1444.000000	
15.730405	1459.000000	
15.750913	1447.000000	
15.771421	1483.000000	
15.791928	1497.000000	
15.812436	1471.000000	
15.832944	1506.000000	
15.853451	1469.000000	
15.873959	1482.000000	
15.894467	1547.000000	
15.914974	1507.000000	
15.935482	1496.000000	
15.955990	1509.000000	
15.976498	1529.000000	
15.997005	1497.000000	
16.017513	1635.000000	
16.038021	1747.000000	
16.058528	1715.000000	
16.079036	1697.000000	
16.099544	1690.000000	
16.120051	1781.000000	
16.140559	1820.000000	
16.161067	1798.000000	
16.181575	1826.000000	
16.202082	1785.000000	
16.222590	1955.000000	
16.243098	2088.000000	
16.263605	2084.000000	
16.284113	2202.000000	
16.304621	2434.000000	
16.325128	2652.000000	
16.345636	2871.000000	
16.366144	3216.000000	
16.386652	3476.000000	
16.407159	3883.000000	
16.427667	4073.000000	
16.448175	4740.000000	
16.468682	5090.000000	
16.489190	5520.000000	
16.509698	5999.000000	
16.530205	6534.000000	
16.550713	6825.000000	
16.571221	7643.000000	
16.591729	8284.000000	
16.612236	9159.000000	
16.632744	9816.000000	
16.653252	10500.000000	
16.673759	10988.000000	
16.694267	10798.000000	
16.714775	10588.000000	
16.735283	9320.000000	
16.755790	7514.000000	
16.776298	5897.000000	
16.796806	4698.000000	
16.817313	3820.000000	
16.837821	3185.000000	
16.858329	2820.000000	
16.878836	2635.000000	
16.899344	2436.000000	
16.919852	2343.000000	
16.940360	2292.000000	
16.960867	2266.000000	
16.981375	2003.000000	
17.001883	1975.000000	
17.022390	2010.000000	
17.042898	1872.000000	
17.063406	1995.000000	
17.083913	1898.000000	
17.104421	1888.000000	
17.124929	1885.000000	
17.145437	1806.000000	
17.165944	1834.000000	
17.186452	1856.000000	
17.206960	1739.000000	
17.227467	1808.000000	
17.247975	1805.000000	
17.268483	1836.000000	
17.288990	1809.000000	
17.309498	1769.000000	
17.330006	1820.000000	
17.350514	1842.000000	
17.371021	1773.000000	
17.391529	1914.000000	
17.412037	1858.000000	
17.432544	1886.000000	
17.453052	1834.000000	
17.473560	1855.000000	
17.494067	1928.000000	
17.514575	1921.000000	
17.535083	1878.000000	
17.555591	1939.000000	
17.576098	2001.000000	
17.596606	1975.000000	
17.617114	2021.000000	
17.637621	2030.000000	
17.658129	2154.000000	
17.678637	2098.000000	
17.699144	2217.000000	
17.719652	2342.000000	
17.740160	2418.000000	
17.760668	2398.000000	
17.781175	2558.000000	
17.801683	2537.000000	
17.822191	2721.000000	
17.842698	2817.000000	
17.863206	2952.000000	
17.883714	3036.000000	
17.904221	3173.000000	
17.924729	3161.000000	
17.945237	3266.000000	
17.965745	3339.000000	
17.986252	3470.000000	
18.006760	3485.000000	
18.027268	3678.000000	
18.047775	3703.000000	
18.068283	3815.000000	
18.088791	3916.000000	
18.109298	4052.000000	
18.129806	3960.000000	
18.150314	3864.000000	
18.170822	3712.000000	
18.191329	3510.000000	
18.211837	3226.000000	
18.232345	3110.000000	
18.252852	2925.000000	
18.273360	2810.000000	
18.293868	2680.000000	
18.314376	2607.000000	
18.334883	2619.000000	
18.355391	2628.000000	
18.375899	2626.000000	
18.396406	2788.000000	
18.416914	2833.000000	
18.437422	2852.000000	
18.457929	3075.000000	
18.478437	3056.000000	
18.498945	3340.000000	
18.519453	3462.000000	
18.539960	3666.000000	
18.560468	3725.000000	
18.580976	4017.000000	
18.601483	3942.000000	
18.621991	4300.000000	
18.642499	4529.000000	
18.663006	4833.000000	
18.683514	4775.000000	
18.704022	5094.000000	
18.724530	5324.000000	
18.745037	5237.000000	
18.765545	5360.000000	
18.786053	5153.000000	
18.806560	4901.000000	
18.827068	4715.000000	
18.847576	4417.000000	
18.868083	4216.000000	
18.888591	3695.000000	
18.909099	3528.000000	
18.929607	3225.000000	
18.950114	3011.000000	
18.970622	2885.000000	
18.991130	2763.000000	
19.011637	2644.000000	
19.032145	2561.000000	
19.052653	2391.000000	
19.073160	2453.000000	
19.093668	2422.000000	
19.114176	2333.000000	
19.134684	2263.000000	
19.155191	2285.000000	
19.175699	2144.000000	
19.196207	2220.000000	
19.216714	2185.000000	
19.237222	2192.000000	
19.257730	2203.000000	
19.278237	2168.000000	
19.298745	2143.000000	
19.319253	2160.000000	
19.339761	2227.000000	
19.360268	2120.000000	
19.380776	2156.000000	
19.401284	2165.000000	
19.421791	2142.000000	
19.442299	2152.000000	
19.462807	2267.000000	
19.483314	2143.000000	
19.503822	2289.000000	
19.524330	2282.000000	
19.544838	2361.000000	
19.565345	2454.000000	
19.585853	2440.000000	
19.606361	2552.000000	
19.626868	2707.000000	
19.647376	2707.000000	
19.667884	2663.000000	
19.688391	2790.000000	
19.708899	2859.000000	
19.729407	2950.000000	
19.749915	3017.000000	
19.770422	3026.000000	
19.790930	3260.000000	
19.811438	3309.000000	
19.831945	3449.000000	
19.852453	3456.000000	
19.872961	3563.000000	
19.893469	3605.000000	
19.913976	3580.000000	
19.934484	3492.000000	
19.954992	3439.000000	
19.975499	3370.000000	
19.996007	3211.000000	
20.016515	3155.000000	
20.037022	3011.000000	
20.057530	2760.000000	
20.078038	2682.000000	
20.098546	2627.000000	
20.119053	2512.000000	
20.139561	2384.000000	
20.160069	2494.000000	
20.180576	2409.000000	
20.201084	2481.000000	
20.221592	2454.000000	
20.242099	2388.000000	
20.262607	2390.000000	
20.283115	2415.000000	
20.303623	2329.000000	
20.324130	2391.000000	
20.344638	2342.000000	
20.365146	2398.000000	
20.385653	2335.000000	
20.406161	2280.000000	
20.426669	2284.000000	
20.447176	2254.000000	
20.467684	2217.000000	
20.488192	2224.000000	
20.508700	2202.000000	
20.529207	2179.000000	
20.549715	2268.000000	
20.570223	2293.000000	
20.590730	2265.000000	
20.611238	2170.000000	
20.631746	2233.000000	
20.652253	2172.000000	
20.672761	2274.000000	
20.693269	2276.000000	
20.713777	2272.000000	
20.734284	2243.000000	
20.754792	2232.000000	
20.775300	2283.000000	
20.795807	2312.000000	
20.816315	2184.000000	
20.836823	2257.000000	
20.857330	2238.000000	
20.877838	2298.000000	
20.898346	2319.000000	
20.918854	2271.000000	
20.939361	2391.000000	
20.959869	2260.000000	
20.980377	2421.000000	
21.000884	2306.000000	
21.021392	2298.000000	
21.041900	2336.000000	
21.062407	2436.000000	
21.082915	2376.000000	
21.103423	2472.000000	
21.123931	2424.000000	
21.144438	2406.000000	
21.164946	2509.000000	
21.185454	2503.000000	
21.205961	2570.000000	
21.226469	2547.000000	
21.246977	2641.000000	
21.267484	2645.000000	
21.287992	2662.000000	
21.308500	2616.000000	
21.329008	2794.000000	
21.349515	2777.000000	
21.370023	2772.000000	
21.390531	2829.000000	
21.411038	2919.000000	
21.431546	3035.000000	
21.452054	3018.000000	
21.472562	3102.000000	
21.493069	3114.000000	
21.513577	3352.000000	
21.534085	3358.000000	
21.554592	3378.000000	
21.575100	3384.000000	
21.595608	3471.000000	
21.616115	3534.000000	
21.636623	3541.000000	
21.657131	3598.000000	
21.677639	3546.000000	
21.698146	3605.000000	
21.718654	3567.000000	
21.739162	3748.000000	
21.759669	3860.000000	
21.780177	3945.000000	
21.800685	3962.000000	
21.821192	3998.000000	
21.841700	4031.000000	
21.862208	4111.000000	
21.882716	4179.000000	
21.903223	4205.000000	
21.923731	4332.000000	
21.944239	4238.000000	
21.964746	4179.000000	
21.985254	4384.000000	
22.005762	4507.000000	
22.026269	4459.000000	
22.046777	4838.000000	
22.067285	4846.000000	
22.087793	4994.000000	
22.108300	5119.000000	
22.128808	5280.000000	
22.149316	5160.000000	
22.169823	5193.000000	
22.190331	5253.000000	
22.210839	4897.000000	
22.231346	4796.000000	
22.251854	4401.000000	
22.272362	4294.000000	
22.292870	3907.000000	
22.313377	3777.000000	
22.333885	3641.000000	
22.354393	3467.000000	
22.374900	3483.000000	
22.395408	3440.000000	
22.415916	3255.000000	
22.436423	3311.000000	
22.456931	3310.000000	
22.477439	3291.000000	
22.497947	3300.000000	
22.518454	3375.000000	
22.538962	3441.000000	
22.559470	3511.000000	
22.579977	3631.000000	
22.600485	3809.000000	
22.620993	3853.000000	
22.641500	4012.000000	
22.662008	4168.000000	
22.682516	4356.000000	
22.703024	4440.000000	
22.723531	4787.000000	
22.744039	5061.000000	
22.764547	5289.000000	
22.785054	5403.000000	
22.805562	5634.000000	
22.826070	6107.000000	
22.846577	6341.000000	
22.867085	6593.000000	
22.887593	7042.000000	
22.908101	7232.000000	
22.928608	7557.000000	
22.949116	7783.000000	
22.969624	7906.000000	
22.990131	7866.000000	
23.010639	7891.000000	
23.031147	7772.000000	
23.051655	7718.000000	
23.072162	7477.000000	
23.092670	7396.000000	
23.113178	7200.000000	
23.133685	7294.000000	
23.154193	7008.000000	
23.174701	6800.000000	
23.195208	6588.000000	
23.215716	6335.000000	
23.236224	5836.000000	
23.256732	5664.000000	
23.277239	5306.000000	
23.297747	5162.000000	
23.318255	4889.000000	
23.338762	4788.000000	
23.359270	4673.000000	
23.379778	4614.000000	
23.400285	4568.000000	
23.420793	4690.000000	
23.441301	4647.000000	
23.461809	4624.000000	
23.482316	4503.000000	
23.502824	4496.000000	
23.523332	4469.000000	
23.543839	4381.000000	
23.564347	4318.000000	
23.584855	4157.000000	
23.605362	3722.000000	
23.625870	3661.000000	
23.646378	3396.000000	
23.666886	3226.000000	
23.687393	3076.000000	
23.707901	3083.000000	
23.728409	2951.000000	
23.748916	2962.000000	
23.769424	2901.000000	
23.789932	2837.000000	
23.810439	2832.000000	
23.830947	2729.000000	
23.851455	2840.000000	
23.871963	2696.000000	
23.892470	2760.000000	
23.912978	2681.000000	
23.933486	2806.000000	
23.953993	2684.000000	
23.974501	2710.000000	
23.995009	2759.000000	
24.015516	2655.000000	
24.036024	2719.000000	
24.056532	2622.000000	
24.077040	2771.000000	
24.097547	2753.000000	
24.118055	2534.000000	
24.138563	2639.000000	
24.159070	2750.000000	
24.179578	2606.000000	
24.200086	2664.000000	
24.220593	2571.000000	
24.241101	2693.000000	
24.261609	2664.000000	
24.282117	2649.000000	
24.302624	2592.000000	
24.323132	2649.000000	
24.343640	2745.000000	
24.364147	2728.000000	
24.384655	2766.000000	
24.405163	2714.000000	
24.425670	2715.000000	
24.446178	2609.000000	
24.466686	2697.000000	
24.487194	2674.000000	
24.507701	2777.000000	
24.528209	2830.000000	
24.548717	2878.000000	
24.569224	2741.000000	
24.589732	2816.000000	
24.610240	2960.000000	
24.630748	2882.000000	
24.651255	2776.000000	
24.671763	2922.000000	
24.692271	2867.000000	
24.712778	2822.000000	
24.733286	2999.000000	
24.753794	2905.000000	
24.774301	2871.000000	
24.794809	2954.000000	
24.815317	2896.000000	
24.835825	2941.000000	
24.856332	2919.000000	
24.876840	2763.000000	
24.897348	2921.000000	
24.917855	2797.000000	
24.938363	2783.000000	
24.958871	2814.000000	
24.979378	2826.000000	
24.999886	2859.000000	
25.020394	2826.000000	
25.040902	2754.000000	
25.061409	2742.000000	
25.081917	2720.000000	
25.102425	2793.000000	
25.122932	2820.000000	
25.143440	2853.000000	
25.163948	2818.000000	
25.184455	2861.000000	
25.204963	2811.000000	
25.225471	2899.000000	
25.245979	2868.000000	
25.266486	2817.000000	
25.286994	2901.000000	
25.307502	3036.000000	
25.328009	3006.000000	
25.348517	3045.000000	
25.369025	2991.000000	
25.389532	3043.000000	
25.410040	3065.000000	
25.430548	3100.000000	
25.451056	3116.000000	
25.471563	3065.000000	
25.492071	3120.000000	
25.512579	3155.000000	
25.533086	3104.000000	
25.553594	3181.000000	
25.574102	3314.000000	
25.594609	3221.000000	
25.615117	3241.000000	
25.635625	3339.000000	
25.656133	3285.000000	
25.676640	3443.000000	
25.697148	3422.000000	
25.717656	3546.000000	
25.738163	3619.000000	
25.758671	3582.000000	
25.779179	3707.000000	
25.799686	3967.000000	
25.820194	3984.000000	
25.840702	4141.000000	
25.861210	4261.000000	
25.881717	4518.000000	
25.902225	4811.000000	
25.922733	5164.000000	
25.943240	5495.000000	
25.963748	5784.000000	
25.984256	6461.000000	
26.004763	7127.000000	
26.025271	7765.000000	
26.045779	8445.000000	
26.066287	9268.000000	
26.086794	10114.000000	
26.107302	10828.000000	
26.127810	11461.000000	
26.148317	12242.000000	
26.168825	12999.000000	
26.189333	13681.000000	
26.209841	14397.000000	
26.230348	15378.000000	
26.250856	15790.000000	
26.271364	16616.000000	
26.291871	17376.000000	
26.312379	18052.000000	
26.332887	18712.000000	
26.353394	18734.000000	
26.373902	18406.000000	
26.394410	17819.000000	
26.414918	16951.000000	
26.435425	15188.000000	
26.455933	13521.000000	
26.476441	11911.000000	
26.496948	10123.000000	
26.517456	9051.000000	
26.537964	7837.000000	
26.558471	6738.000000	
26.578979	6258.000000	
26.599487	5818.000000	
26.619995	5516.000000	
26.640502	5170.000000	
26.661010	5180.000000	
26.681518	4970.000000	
26.702025	4872.000000	
26.722533	4841.000000	
26.743041	4819.000000	
26.763548	4860.000000	
26.784056	4821.000000	
26.804564	4824.000000	
26.825072	4733.000000	
26.845579	4945.000000	
26.866087	4937.000000	
26.886595	5016.000000	
26.907102	5177.000000	
26.927610	5293.000000	
26.948118	5462.000000	
26.968625	5530.000000	
26.989133	5787.000000	
27.009641	6453.000000	
27.030149	6507.000000	
27.050656	6941.000000	
27.071164	7479.000000	
27.091672	8199.000000	
27.112179	8688.000000	
27.132687	9298.000000	
27.153195	9928.000000	
27.173702	10796.000000	
27.194210	11326.000000	
27.214718	12240.000000	
27.235226	12778.000000	
27.255733	13958.000000	
27.276241	14699.000000	
27.296749	15442.000000	
27.317256	16574.000000	
27.337764	17445.000000	
27.358272	18559.000000	
27.378779	19747.000000	
27.399287	20669.000000	
27.419795	21140.000000	
27.440303	21597.000000	
27.460810	21939.000000	
27.481318	21689.000000	
27.501826	20941.000000	
27.522333	20650.000000	
27.542841	20103.000000	
27.563349	19869.000000	
27.583856	19473.000000	
27.604364	19457.000000	
27.624872	19569.000000	
27.645380	19514.000000	
27.665887	19286.000000	
27.686395	19423.000000	
27.706903	18921.000000	
27.727410	18355.000000	
27.747918	17054.000000	
27.768426	15722.000000	
27.788934	14190.000000	
27.809441	12613.000000	
27.829949	11199.000000	
27.850457	9438.000000	
27.870964	8333.000000	
27.891472	7401.000000	
27.911980	6613.000000	
27.932487	6096.000000	
27.952995	5552.000000	
27.973503	5316.000000	
27.994011	5168.000000	
28.014518	4780.000000	
28.035026	4730.000000	
28.055534	4377.000000	
28.076041	4386.000000	
28.096549	4208.000000	
28.117057	4215.000000	
28.137564	4128.000000	
28.158072	4123.000000	
28.178580	4120.000000	
28.199088	3981.000000	
28.219595	4031.000000	
28.240103	3994.000000	
28.260611	4000.000000	
28.281118	3921.000000	
28.301626	3762.000000	
28.322134	3579.000000	
28.342641	3459.000000	
28.363149	3337.000000	
28.383657	3174.000000	
28.404165	3016.000000	
28.424672	3033.000000	
28.445180	2896.000000	
28.465688	2806.000000	
28.486195	2732.000000	
28.506703	2721.000000	
28.527211	2742.000000	
28.547718	2848.000000	
28.568226	2690.000000	
28.588734	2659.000000	
28.609242	2727.000000	
28.629749	2716.000000	
28.650257	2578.000000	
28.670765	2539.000000	
28.691272	2609.000000	
28.711780	2616.000000	
28.732288	2513.000000	
28.752795	2505.000000	
28.773303	2582.000000	
28.793811	2511.000000	
28.814319	2517.000000	
28.834826	2551.000000	
28.855334	2557.000000	
28.875842	2511.000000	
28.896349	2577.000000	
28.916857	2537.000000	
28.937365	2575.000000	
28.957872	2508.000000	
28.978380	2575.000000	
28.998888	2484.000000	
29.019396	2470.000000	
29.039903	2504.000000	
29.060411	2492.000000	
29.080919	2456.000000	
29.101426	2512.000000	
29.121934	2387.000000	
29.142442	2545.000000	
29.162949	2440.000000	
29.183457	2559.000000	
29.203965	2410.000000	
29.224473	2453.000000	
29.244980	2545.000000	
29.265488	2513.000000	
29.285996	2524.000000	
29.306503	2507.000000	
29.327011	2572.000000	
29.347519	2515.000000	
29.368027	2531.000000	
29.388534	2544.000000	
29.409042	2613.000000	
29.429550	2556.000000	
29.450057	2531.000000	
29.470565	2630.000000	
29.491073	2656.000000	
29.511580	2705.000000	
29.532088	2742.000000	
29.552596	2787.000000	
29.573104	2618.000000	
29.593611	2787.000000	
29.614119	2779.000000	
29.634627	2742.000000	
29.655134	2769.000000	
29.675642	2819.000000	
29.696150	2798.000000	
29.716657	2928.000000	
29.737165	2910.000000	
29.757673	2916.000000	
29.778181	2995.000000	
29.798688	3111.000000	
29.819196	3102.000000	
29.839704	3110.000000	
29.860211	3054.000000	
29.880719	3204.000000	
29.901227	3200.000000	
29.921734	3141.000000	
29.942242	3061.000000	
29.962750	3034.000000	
29.983258	3085.000000	
30.003765	2910.000000	
30.024273	3019.000000	
30.044781	2859.000000	
30.065288	2753.000000	
30.085796	2722.000000	
30.106304	2652.000000	
30.126811	2635.000000	
30.147319	2648.000000	
30.167827	2558.000000	
30.188335	2536.000000	
30.208842	2581.000000	
30.229350	2468.000000	
30.249858	2541.000000	
30.270365	2408.000000	
30.290873	2516.000000	
30.311381	2552.000000	
30.331888	2414.000000	
30.352396	2395.000000	
30.372904	2380.000000	
30.393412	2448.000000	
30.413919	2422.000000	
30.434427	2414.000000	
30.454935	2423.000000	
30.475442	2504.000000	
30.495950	2390.000000	
30.516458	2404.000000	
30.536965	2381.000000	
30.557473	2371.000000	
30.577981	2318.000000	
30.598489	2250.000000	
30.618996	2259.000000	
30.639504	2187.000000	
30.660012	2214.000000	
30.680519	2204.000000	
30.701027	2218.000000	
30.721535	2142.000000	
30.742042	2036.000000	
30.762550	2233.000000	
30.783058	2191.000000	
30.803566	2092.000000	
30.824073	2143.000000	
30.844581	2122.000000	
30.865089	2148.000000	
30.885596	2170.000000	
30.906104	2225.000000	
30.926612	2230.000000	
30.947120	2210.000000	
30.967627	2154.000000	
30.988135	2271.000000	
31.008643	2405.000000	
31.029150	2399.000000	
31.049658	2338.000000	
31.070166	2461.000000	
31.090673	2540.000000	
31.111181	2558.000000	
31.131689	2657.000000	
31.152197	2837.000000	
31.172704	2853.000000	
31.193212	2988.000000	
31.213720	3090.000000	
31.234227	3230.000000	
31.254735	3344.000000	
31.275243	3481.000000	
31.295750	3559.000000	
31.316258	3737.000000	
31.336766	3772.000000	
31.357274	3867.000000	
31.377781	3975.000000	
31.398289	4171.000000	
31.418797	4126.000000	
31.439304	4197.000000	
31.459812	4162.000000	
31.480320	4198.000000	
31.500827	4199.000000	
31.521335	4265.000000	
31.541843	4363.000000	
31.562351	4273.000000	
31.582858	4324.000000	
31.603366	4251.000000	
31.623874	4186.000000	
31.644381	4083.000000	
31.664889	3942.000000	
31.685397	3636.000000	
31.705904	3451.000000	
31.726412	3429.000000	
31.746920	3214.000000	
31.767428	3159.000000	
31.787935	3208.000000	
31.808443	3006.000000	
31.828951	3081.000000	
31.849458	3013.000000	
31.869966	3082.000000	
31.890474	3132.000000	
31.910981	3136.000000	
31.931489	3016.000000	
31.951997	2966.000000	
31.972505	3097.000000	
31.993012	3020.000000	
32.013520	2918.000000	
32.034028	2799.000000	
32.054535	2807.000000	
32.075043	2638.000000	
32.095551	2564.000000	
32.116058	2397.000000	
32.136566	2427.000000	
32.157074	2331.000000	
32.177582	2249.000000	
32.198089	2226.000000	
32.218597	2177.000000	
32.239105	2142.000000	
32.259612	2145.000000	
32.280120	2242.000000	
32.300628	2187.000000	
32.321135	2222.000000	
32.341643	2211.000000	
32.362151	2261.000000	
32.382659	2144.000000	
32.403166	2240.000000	
32.423674	2319.000000	
32.444182	2300.000000	
32.464689	2289.000000	
32.485197	2273.000000	
32.505705	2346.000000	
32.526213	2306.000000	
32.546720	2352.000000	
32.567228	2326.000000	
32.587736	2351.000000	
32.608243	2333.000000	
32.628751	2441.000000	
32.649259	2519.000000	
32.669766	2520.000000	
32.690274	2533.000000	
32.710782	2618.000000	
32.731290	2633.000000	
32.751797	2694.000000	
32.772305	2686.000000	
32.792813	2681.000000	
32.813320	2732.000000	
32.833828	2776.000000	
32.854336	2700.000000	
32.874843	2763.000000	
32.895351	2674.000000	
32.915859	2806.000000	
32.936367	2728.000000	
32.956874	2860.000000	
32.977382	2785.000000	
32.997890	2887.000000	
33.018397	2780.000000	
33.038905	2746.000000	
33.059413	2740.000000	
33.079920	2797.000000	
33.100428	2720.000000	
33.120936	2674.000000	
33.141444	2627.000000	
33.161951	2540.000000	
33.182459	2627.000000	
33.202967	2481.000000	
33.223474	2480.000000	
33.243982	2385.000000	
33.264490	2489.000000	
33.284997	2460.000000	
33.305505	2480.000000	
33.326013	2513.000000	
33.346521	2380.000000	
33.367028	2582.000000	
33.387536	2646.000000	
33.408044	2654.000000	
33.428551	2699.000000	
33.449059	2806.000000	
33.469567	2763.000000	
33.490074	2828.000000	
33.510582	2753.000000	
33.531090	2796.000000	
33.551598	2829.000000	
33.572105	2890.000000	
33.592613	2786.000000	
33.613121	2805.000000	
33.633628	2676.000000	
33.654136	2828.000000	
33.674644	2870.000000	
33.695151	2662.000000	
33.715659	2735.000000	
33.736167	2740.000000	
33.756675	2696.000000	
33.777182	2589.000000	
33.797690	2517.000000	
33.818198	2432.000000	
33.838705	2471.000000	
33.859213	2379.000000	
33.879721	2262.000000	
33.900228	2188.000000	
33.920736	2144.000000	
33.941244	2072.000000	
33.961752	1995.000000	
33.982259	2018.000000	
34.002767	1967.000000	
34.023275	1935.000000	
34.043782	1855.000000	
34.064290	1896.000000	
34.084798	1753.000000	
34.105306	1779.000000	
34.125813	1843.000000	
34.146321	1756.000000	
34.166829	1741.000000	
34.187336	1773.000000	
34.207844	1771.000000	
34.228352	1798.000000	
34.248859	1729.000000	
34.269367	1815.000000	
34.289875	1718.000000	
34.310383	1754.000000	
34.330890	1763.000000	
34.351398	1769.000000	
34.371906	1768.000000	
34.392413	1790.000000	
34.412921	1758.000000	
34.433429	1740.000000	
34.453936	1715.000000	
34.474444	1768.000000	
34.494952	1665.000000	
34.515460	1807.000000	
34.535967	1773.000000	
34.556475	1753.000000	
34.576983	1791.000000	
34.597490	1774.000000	
34.617998	1923.000000	
34.638506	1800.000000	
34.659013	1876.000000	
34.679521	1917.000000	
34.700029	1846.000000	
34.720537	1911.000000	
34.741044	1956.000000	
34.761552	1938.000000	
34.782060	1938.000000	
34.802567	1956.000000	
34.823075	1916.000000	
34.843583	1946.000000	
34.864090	1845.000000	
34.884598	1965.000000	
34.905106	2034.000000	
34.925614	2013.000000	
34.946121	1940.000000	
34.966629	1959.000000	
34.987137	1904.000000	
35.007644	2006.000000	
35.028152	1869.000000	
35.048660	1950.000000	
35.069167	1911.000000	
35.089675	1871.000000	
35.110183	1820.000000	
35.130691	1879.000000	
35.151198	1913.000000	
35.171706	1912.000000	
35.192214	1875.000000	
35.212721	1863.000000	
35.233229	1869.000000	
35.253737	1877.000000	
35.274244	1879.000000	
35.294752	1930.000000	
35.315260	2128.000000	
35.335768	2082.000000	
35.356275	2007.000000	
35.376783	2179.000000	
35.397291	2278.000000	
35.417798	2208.000000	
35.438306	2260.000000	
35.458814	2411.000000	
35.479321	2326.000000	
35.499829	2333.000000	
35.520337	2464.000000	
35.540845	2570.000000	
35.561352	2478.000000	
35.581860	2601.000000	
35.602368	2532.000000	
35.622875	2650.000000	
35.643383	2540.000000	
35.663891	2552.000000	
35.684399	2467.000000	
35.704906	2443.000000	
35.725414	2280.000000	
35.745922	2240.000000	
35.766429	2142.000000	
35.786937	2154.000000	
35.807445	2058.000000	
35.827952	1937.000000	
35.848460	1990.000000	
35.868968	1937.000000	
35.889476	1990.000000	
35.909983	1902.000000	
35.930491	1836.000000	
35.950999	1810.000000	
35.971506	1866.000000	
35.992014	1828.000000	
36.012522	1795.000000	
36.033029	1861.000000	
36.053537	1832.000000	
36.074045	1846.000000	
36.094553	1809.000000	
36.115060	1874.000000	
36.135568	1913.000000	
36.156076	1955.000000	
36.176583	2002.000000	
36.197091	1987.000000	
36.217599	1969.000000	
36.238106	2045.000000	
36.258614	2010.000000	
36.279122	2103.000000	
36.299630	2090.000000	
36.320137	2195.000000	
36.340645	2100.000000	
36.361153	2071.000000	
36.381660	2119.000000	
36.402168	2102.000000	
36.422676	2115.000000	
36.443183	2179.000000	
36.463691	2144.000000	
36.484199	2145.000000	
36.504707	2199.000000	
36.525214	2263.000000	
36.545722	2286.000000	
36.566230	2292.000000	
36.586737	2278.000000	
36.607245	2228.000000	
36.627753	2261.000000	
36.648260	2288.000000	
36.668768	2304.000000	
36.689276	2231.000000	
36.709784	2228.000000	
36.730291	2233.000000	
36.750799	2337.000000	
36.771307	2178.000000	
36.791814	2315.000000	
36.812322	2225.000000	
36.832830	2182.000000	
36.853337	2249.000000	
36.873845	2227.000000	
36.894353	2165.000000	
36.914861	2159.000000	
36.935368	2187.000000	
36.955876	2188.000000	
36.976384	2139.000000	
36.996891	2136.000000	
37.017399	2162.000000	
37.037907	2115.000000	
37.058414	2102.000000	
37.078922	1993.000000	
37.099430	2039.000000	
37.119938	2036.000000	
37.140445	1992.000000	
37.160953	2078.000000	
37.181461	2039.000000	
37.201968	2061.000000	
37.222476	2051.000000	
37.242984	2170.000000	
37.263492	2057.000000	
37.283999	2243.000000	
37.304507	2108.000000	
37.325015	2207.000000	
37.345522	2354.000000	
37.366030	2346.000000	
37.386538	2392.000000	
37.407045	2364.000000	
37.427553	2307.000000	
37.448061	2454.000000	
37.468569	2291.000000	
37.489076	2342.000000	
37.509584	2358.000000	
37.530092	2357.000000	
37.550599	2339.000000	
37.571107	2303.000000	
37.591615	2345.000000	
37.612122	2284.000000	
37.632630	2352.000000	
37.653138	2268.000000	
37.673646	2229.000000	
37.694153	2160.000000	
37.714661	2126.000000	
37.735169	2159.000000	
37.755676	2135.000000	
37.776184	2164.000000	
37.796692	2077.000000	
37.817199	2004.000000	
37.837707	2064.000000	
37.858215	2020.000000	
37.878723	1950.000000	
37.899230	2021.000000	
37.919738	1995.000000	
37.940246	1906.000000	
37.960753	1983.000000	
37.981261	2035.000000	
38.001769	1952.000000	
38.022276	1962.000000	
38.042784	1942.000000	
38.063292	1980.000000	
38.083800	1995.000000	
38.104307	1986.000000	
38.124815	1977.000000	
38.145323	2107.000000	
38.165830	2065.000000	
38.186338	2134.000000	
38.206846	2004.000000	
38.227353	2053.000000	
38.247861	1999.000000	
38.268369	2044.000000	
38.288877	1971.000000	
38.309384	2003.000000	
38.329892	2028.000000	
38.350400	2037.000000	
38.370907	2005.000000	
38.391415	1914.000000	
38.411923	1944.000000	
38.432430	1845.000000	
38.452938	1962.000000	
38.473446	1902.000000	
38.493954	1938.000000	
38.514461	1901.000000	
38.534969	1954.000000	
38.555477	1882.000000	
38.575984	1885.000000	
38.596492	1897.000000	
38.617000	1918.000000	
38.637507	1910.000000	
38.658015	1856.000000	
38.678523	1872.000000	
38.699031	1937.000000	
38.719538	1841.000000	
38.740046	1869.000000	
38.760554	1923.000000	
38.781061	1889.000000	
38.801569	1838.000000	
38.822077	1856.000000	
38.842585	1809.000000	
38.863092	1834.000000	
38.883600	1843.000000	
38.904108	1785.000000	
38.924615	1773.000000	
38.945123	1792.000000	
38.965631	1752.000000	
38.986138	1743.000000	
39.006646	1759.000000	
39.027154	1852.000000	
39.047662	1778.000000	
39.068169	1857.000000	
39.088677	1775.000000	
39.109185	1811.000000	
39.129692	1859.000000	
39.150200	1939.000000	
39.170708	1898.000000	
39.191215	1896.000000	
39.211723	1916.000000	
39.232231	1921.000000	
39.252739	1980.000000	
39.273246	1955.000000	
39.293754	1884.000000	
39.314262	1902.000000	
39.334769	1893.000000	
39.355277	1895.000000	
39.375785	1960.000000	
39.396292	1892.000000	
39.416800	1902.000000	
39.437308	1904.000000	
39.457816	1901.000000	
39.478323	1879.000000	
39.498831	1848.000000	
39.519339	1852.000000	
39.539846	1791.000000	
39.560354	1726.000000	
39.580862	1770.000000	
39.601369	1717.000000	
39.621877	1742.000000	
39.642385	1763.000000	
39.662893	1772.000000	
39.683400	1669.000000	
39.703908	1760.000000	
39.724416	1741.000000	
39.744923	1781.000000	
39.765431	1747.000000	
39.785939	1824.000000	
39.806446	1805.000000	
39.826954	1859.000000	
39.847462	1832.000000	
39.867970	1861.000000	
39.888477	1836.000000	
39.908985	1951.000000	
39.929493	1863.000000	
39.950000	1897.000000	
39.970508	1931.000000	
39.991016	1939.000000	
40.011523	1920.000000	
40.032031	1977.000000	
40.052539	2001.000000	
40.073047	1982.000000	
40.093554	1941.000000	
40.114062	1935.000000	
40.134570	1997.000000	
40.155077	2054.000000	
40.175585	2065.000000	
40.196093	2038.000000	
40.216600	2117.000000	
40.237108	2189.000000	
40.257616	2201.000000	
40.278124	2191.000000	
40.298631	2152.000000	
40.319139	2202.000000	
40.339647	2203.000000	
40.360154	2240.000000	
40.380662	2251.000000	
40.401170	2309.000000	
40.421678	2202.000000	
40.442185	2271.000000	
40.462693	2231.000000	
40.483201	2163.000000	
40.503708	2173.000000	
40.524216	2093.000000	
40.544724	2216.000000	
40.565231	2086.000000	
40.585739	2188.000000	
40.606247	2049.000000	
40.626755	2053.000000	
40.647262	2032.000000	
40.667770	1989.000000	
40.688278	2029.000000	
40.708785	2046.000000	
40.729293	1883.000000	
40.749801	1984.000000	
40.770308	2010.000000	
40.790816	1995.000000	
40.811324	1936.000000	
40.831832	2000.000000	
40.852339	2057.000000	
40.872847	2031.000000	
40.893355	2049.000000	
40.913862	2156.000000	
40.934370	2089.000000	
40.954878	2041.000000	
40.975385	2147.000000	
40.995893	2218.000000	
41.016401	2225.000000	
41.036909	2167.000000	
41.057416	2243.000000	
41.077924	2267.000000	
41.098432	2189.000000	
41.118939	2316.000000	
41.139447	2275.000000	
41.159955	2268.000000	
41.180462	2313.000000	
41.200970	2313.000000	
41.221478	2437.000000	
41.241986	2200.000000	
41.262493	2241.000000	
41.283001	2273.000000	
41.303509	2215.000000	
41.324016	2125.000000	
41.344524	2152.000000	
41.365032	2043.000000	
41.385539	2137.000000	
41.406047	2028.000000	
41.426555	1947.000000	
41.447063	1960.000000	
41.467570	1903.000000	
41.488078	1922.000000	
41.508586	1936.000000	
41.529093	1929.000000	
41.549601	1966.000000	
41.570109	1829.000000	
41.590616	1891.000000	
41.611124	1898.000000	
41.631632	1898.000000	
41.652140	1818.000000	
41.672647	1842.000000	
41.693155	1878.000000	
41.713663	1830.000000	
41.734170	1853.000000	
41.754678	1813.000000	
41.775186	1789.000000	
41.795693	1665.000000	
41.816201	1740.000000	
41.836709	1661.000000	
41.857217	1688.000000	
41.877724	1688.000000	
41.898232	1598.000000	
41.918740	1568.000000	
41.939247	1559.000000	
41.959755	1599.000000	
41.980263	1587.000000	
42.000771	1506.000000	
42.021278	1511.000000	
42.041786	1460.000000	
42.062294	1561.000000	
42.082801	1457.000000	
42.103309	1513.000000	
42.123817	1454.000000	
42.144324	1429.000000	
42.164832	1443.000000	
42.185340	1490.000000	
42.205848	1439.000000	
42.226355	1426.000000	
42.246863	1453.000000	
42.267371	1444.000000	
42.287878	1394.000000	
42.308386	1461.000000	
42.328894	1427.000000	
42.349401	1324.000000	
42.369909	1409.000000	
42.390417	1347.000000	
42.410925	1401.000000	
42.431432	1441.000000	
42.451940	1407.000000	
42.472448	1416.000000	
42.492955	1415.000000	
42.513463	1387.000000	
42.533971	1381.000000	
42.554478	1418.000000	
42.574986	1387.000000	
42.595494	1484.000000	
42.616002	1496.000000	
42.636509	1449.000000	
42.657017	1482.000000	
42.677525	1407.000000	
42.698032	1469.000000	
42.718540	1441.000000	
42.739048	1506.000000	
42.759555	1455.000000	
42.780063	1433.000000	
42.800571	1548.000000	
42.821079	1554.000000	
42.841586	1470.000000	
42.862094	1526.000000	
42.882602	1491.000000	
42.903109	1490.000000	
42.923617	1486.000000	
42.944125	1487.000000	
42.964632	1616.000000	
42.985140	1505.000000	
43.005648	1581.000000	
43.026156	1577.000000	
43.046663	1561.000000	
43.067171	1521.000000	
43.087679	1550.000000	
43.108186	1657.000000	
43.128694	1572.000000	
43.149202	1598.000000	
43.169709	1580.000000	
43.190217	1592.000000	
43.210725	1635.000000	
43.231233	1633.000000	
43.251740	1604.000000	
43.272248	1609.000000	
43.292756	1596.000000	
43.313263	1685.000000	
43.333771	1628.000000	
43.354279	1606.000000	
43.374786	1616.000000	
43.395294	1640.000000	
43.415802	1579.000000	
43.436310	1740.000000	
43.456817	1630.000000	
43.477325	1687.000000	
43.497833	1621.000000	
43.518340	1631.000000	
43.538848	1637.000000	
43.559356	1659.000000	
43.579864	1601.000000	
43.600371	1580.000000	
43.620879	1619.000000	
43.641387	1602.000000	
43.661894	1581.000000	
43.682402	1674.000000	
43.702910	1610.000000	
43.723417	1584.000000	
43.743925	1624.000000	
43.764433	1602.000000	
43.784941	1569.000000	
43.805448	1575.000000	
43.825956	1601.000000	
43.846464	1637.000000	
43.866971	1684.000000	
43.887479	1662.000000	
43.907987	1749.000000	
43.928494	1692.000000	
43.949002	1643.000000	
43.969510	1753.000000	
43.990018	1722.000000	
44.010525	1746.000000	
44.031033	1799.000000	
44.051541	1759.000000	
44.072048	1757.000000	
44.092556	1862.000000	
44.113064	1727.000000	
44.133571	1800.000000	
44.154079	1796.000000	
44.174587	1826.000000	
44.195095	1868.000000	
44.215602	1731.000000	
44.236110	1748.000000	
44.256618	1751.000000	
44.277125	1648.000000	
44.297633	1740.000000	
44.318141	1704.000000	
44.338648	1605.000000	
44.359156	1660.000000	
44.379664	1590.000000	
44.400172	1636.000000	
44.420679	1521.000000	
44.441187	1610.000000	
44.461695	1608.000000	
44.482202	1632.000000	
44.502710	1545.000000	
44.523218	1651.000000	
44.543725	1576.000000	
44.564233	1626.000000	
44.584741	1617.000000	
44.605249	1551.000000	
44.625756	1575.000000	
44.646264	1598.000000	
44.666772	1530.000000	
44.687279	1581.000000	
44.707787	1582.000000	
44.728295	1534.000000	
44.748802	1619.000000	
44.769310	1623.000000	
44.789818	1669.000000	
44.810326	1618.000000	
44.830833	1625.000000	
44.851341	1580.000000	
44.871849	1683.000000	
44.892356	1644.000000	
44.912864	1720.000000	
44.933372	1663.000000	
44.953879	1709.000000	
44.974387	1722.000000	
44.994895	1698.000000	
45.015403	1791.000000	
45.035910	1778.000000	
45.056418	1793.000000	
45.076926	1873.000000	
45.097433	1906.000000	
45.117941	1926.000000	
45.138449	1864.000000	
45.158957	1921.000000	
45.179464	1923.000000	
45.199972	1961.000000	
45.220480	2081.000000	
45.240987	2058.000000	
45.261495	2116.000000	
45.282003	2053.000000	
45.302510	2159.000000	
45.323018	2131.000000	
45.343526	2160.000000	
45.364034	2102.000000	
45.384541	1988.000000	
45.405049	2093.000000	
45.425557	2122.000000	
45.446064	2045.000000	
45.466572	1925.000000	
45.487080	1945.000000	
45.507587	1976.000000	
45.528095	1898.000000	
45.548603	1949.000000	
45.569111	1883.000000	
45.589618	2040.000000	
45.610126	1972.000000	
45.630634	1985.000000	
45.651141	2035.000000	
45.671649	2061.000000	
45.692157	2010.000000	
45.712664	2032.000000	
45.733172	2082.000000	
45.753680	2187.000000	
45.774188	2053.000000	
45.794695	1995.000000	
45.815203	2103.000000	
45.835711	1927.000000	
45.856218	1939.000000	
45.876726	1991.000000	
45.897234	1976.000000	
45.917741	1895.000000	
45.938249	1773.000000	
45.958757	1688.000000	
45.979265	1769.000000	
45.999772	1767.000000	
46.020280	1726.000000	
46.040788	1693.000000	
46.061295	1733.000000	
46.081803	1677.000000	
46.102311	1682.000000	
46.122818	1624.000000	
46.143326	1651.000000	
46.163834	1619.000000	
46.184342	1585.000000	
46.204849	1640.000000	
46.225357	1676.000000	
46.245865	1657.000000	
46.266372	1618.000000	
46.286880	1559.000000	
46.307388	1563.000000	
46.327895	1558.000000	
46.348403	1537.000000	
46.368911	1576.000000	
46.389419	1575.000000	
46.409926	1524.000000	
46.430434	1541.000000	
46.450942	1503.000000	
46.471449	1459.000000	
46.491957	1490.000000	
46.512465	1383.000000	
46.532972	1509.000000	
46.553480	1388.000000	
46.573988	1419.000000	
46.594496	1482.000000	
46.615003	1484.000000	
46.635511	1422.000000	
46.656019	1464.000000	
46.676526	1423.000000	
46.697034	1477.000000	
46.717542	1492.000000	
46.738050	1508.000000	
46.758557	1465.000000	
46.779065	1506.000000	
46.799573	1497.000000	
46.820080	1499.000000	
46.840588	1504.000000	
46.861096	1510.000000	
46.881603	1379.000000	
46.902111	1547.000000	
46.922619	1504.000000	
46.943127	1452.000000	
46.963634	1453.000000	
46.984142	1458.000000	
47.004650	1444.000000	
47.025157	1456.000000	
47.045665	1556.000000	
47.066173	1498.000000	
47.086680	1445.000000	
47.107188	1451.000000	
47.127696	1392.000000	
47.148204	1375.000000	
47.168711	1370.000000	
47.189219	1457.000000	
47.209727	1423.000000	
47.230234	1429.000000	
47.250742	1481.000000	
47.271250	1411.000000	
47.291757	1488.000000	
47.312265	1416.000000	
47.332773	1405.000000	
47.353281	1431.000000	
47.373788	1442.000000	
47.394296	1475.000000	
47.414804	1405.000000	
47.435311	1440.000000	
47.455819	1458.000000	
47.476327	1385.000000	
47.496834	1428.000000	
47.517342	1423.000000	
47.537850	1527.000000	
47.558358	1442.000000	
47.578865	1368.000000	
47.599373	1420.000000	
47.619881	1479.000000	
47.640388	1435.000000	
47.660896	1415.000000	
47.681404	1413.000000	
47.701911	1418.000000	
47.722419	1413.000000	
47.742927	1464.000000	
47.763435	1418.000000	
47.783942	1389.000000	
47.804450	1354.000000	
47.824958	1353.000000	
47.845465	1364.000000	
47.865973	1402.000000	
47.886481	1333.000000	
47.906988	1336.000000	
47.927496	1313.000000	
47.948004	1358.000000	
47.968512	1306.000000	
47.989019	1319.000000	
48.009527	1317.000000	
48.030035	1309.000000	
48.050542	1261.000000	
48.071050	1307.000000	
48.091558	1241.000000	
48.112065	1356.000000	
48.132573	1270.000000	
48.153081	1319.000000	
48.173589	1291.000000	
48.194096	1363.000000	
48.214604	1322.000000	
48.235112	1307.000000	
48.255619	1286.000000	
48.276127	1295.000000	
48.296635	1295.000000	
48.317143	1298.000000	
48.337650	1281.000000	
48.358158	1262.000000	
48.378666	1255.000000	
48.399173	1380.000000	
48.419681	1310.000000	
48.440189	1348.000000	
48.460696	1332.000000	
48.481204	1354.000000	
48.501712	1262.000000	
48.522220	1314.000000	
48.542727	1333.000000	
48.563235	1364.000000	
48.583743	1396.000000	
48.604250	1378.000000	
48.624758	1428.000000	
48.645266	1475.000000	
48.665773	1439.000000	
48.686281	1538.000000	
48.706789	1384.000000	
48.727297	1446.000000	
48.747804	1460.000000	
48.768312	1485.000000	
48.788820	1485.000000	
48.809327	1367.000000	
48.829835	1433.000000	
48.850343	1381.000000	
48.870850	1388.000000	
48.891358	1385.000000	
48.911866	1441.000000	
48.932374	1467.000000	
48.952881	1387.000000	
48.973389	1446.000000	
48.993897	1359.000000	
49.014404	1437.000000	
49.034912	1403.000000	
49.055420	1373.000000	
49.075927	1331.000000	
49.096435	1451.000000	
49.116943	1368.000000	
49.137451	1396.000000	
49.157958	1406.000000	
49.178466	1347.000000	
49.198974	1392.000000	
49.219481	1433.000000	
49.239989	1382.000000	
49.260497	1383.000000	
49.281004	1433.000000	
49.301512	1458.000000	
49.322020	1518.000000	
49.342528	1532.000000	
49.363035	1506.000000	
49.383543	1542.000000	
49.404051	1577.000000	
49.424558	1605.000000	
49.445066	1669.000000	
49.465574	1700.000000	
49.486081	1725.000000	
49.506589	1697.000000	
49.527097	1759.000000	
49.547605	1763.000000	
49.568112	1797.000000	
49.588620	1872.000000	
49.609128	1819.000000	
49.629635	1772.000000	
49.650143	1879.000000	
49.670651	1824.000000	
49.691158	1825.000000	
49.711666	1905.000000	
49.732174	1872.000000	
49.752682	1849.000000	
49.773189	1913.000000	
49.793697	1737.000000	
49.814205	1790.000000	
49.834712	1780.000000	
49.855220	1734.000000	
49.875728	1688.000000	
49.896236	1628.000000	
49.916743	1655.000000	
49.937251	1635.000000	
49.957759	1601.000000	
49.978266	1572.000000	
49.998774	1596.000000	
50.019282	1524.000000	
50.039789	1497.000000	
50.060297	1584.000000	
50.080805	1501.000000	
50.101313	1594.000000	
50.121820	1469.000000	
50.142328	1543.000000	
50.162836	1518.000000	
50.183343	1495.000000	
50.203851	1503.000000	
50.224359	1500.000000	
50.244866	1539.000000	
50.265374	1496.000000	
50.285882	1496.000000	
50.306390	1517.000000	
50.326897	1506.000000	
50.347405	1457.000000	
50.367913	1480.000000	
50.388420	1474.000000	
50.408928	1509.000000	
50.429436	1476.000000	
50.449943	1505.000000	
50.470451	1480.000000	
50.490959	1387.000000	
50.511467	1394.000000	
50.531974	1411.000000	
50.552482	1408.000000	
50.572990	1387.000000	
50.593497	1418.000000	
50.614005	1494.000000	
50.634513	1341.000000	
50.655020	1342.000000	
50.675528	1384.000000	
50.696036	1425.000000	
50.716544	1329.000000	
50.737051	1378.000000	
50.757559	1350.000000	
50.778067	1398.000000	
50.798574	1350.000000	
50.819082	1486.000000	
50.839590	1471.000000	
50.860097	1443.000000	
50.880605	1392.000000	
50.901113	1399.000000	
50.921621	1462.000000	
50.942128	1427.000000	
50.962636	1511.000000	
50.983144	1391.000000	
51.003651	1428.000000	
51.024159	1475.000000	
51.044667	1481.000000	
51.065174	1508.000000	
51.085682	1453.000000	
51.106190	1543.000000	
51.126698	1473.000000	
51.147205	1513.000000	
51.167713	1497.000000	
51.188221	1480.000000	
51.208728	1478.000000	
51.229236	1456.000000	
51.249744	1543.000000	
51.270251	1423.000000	
51.290759	1506.000000	
51.311267	1460.000000	
51.331775	1480.000000	
51.352282	1482.000000	
51.372790	1409.000000	
51.393298	1443.000000	
51.413805	1414.000000	
51.434313	1408.000000	
51.454821	1432.000000	
51.475329	1482.000000	
51.495836	1385.000000	
51.516344	1401.000000	
51.536852	1392.000000	
51.557359	1354.000000	
51.577867	1313.000000	
51.598375	1341.000000	
51.618882	1332.000000	
51.639390	1304.000000	
51.659898	1317.000000	
51.680406	1247.000000	
51.700913	1272.000000	
51.721421	1373.000000	
51.741929	1285.000000	
51.762436	1278.000000	
51.782944	1332.000000	
51.803452	1309.000000	
51.823959	1268.000000	
51.844467	1287.000000	
51.864975	1312.000000	
51.885483	1365.000000	
51.905990	1294.000000	
51.926498	1342.000000	
51.947006	1330.000000	
51.967513	1380.000000	
51.988021	1277.000000	
52.008529	1278.000000	
52.029036	1262.000000	
52.049544	1323.000000	
52.070052	1322.000000	
52.090560	1333.000000	
52.111067	1308.000000	
52.131575	1288.000000	
52.152083	1324.000000	
52.172590	1310.000000	
52.193098	1224.000000	
52.213606	1296.000000	
52.234113	1287.000000	
52.254621	1247.000000	
52.275129	1239.000000	
52.295637	1239.000000	
52.316144	1272.000000	
52.336652	1198.000000	
52.357160	1271.000000	
52.377667	1235.000000	
52.398175	1173.000000	
52.418683	1200.000000	
52.439190	1287.000000	
52.459698	1241.000000	
52.480206	1211.000000	
52.500714	1289.000000	
52.521221	1192.000000	
52.541729	1264.000000	
52.562237	1237.000000	
52.582744	1236.000000	
52.603252	1193.000000	
52.623760	1169.000000	
52.644267	1204.000000	
52.664775	1141.000000	
52.685283	1129.000000	
52.705791	1131.000000	
52.726298	1159.000000	
52.746806	1147.000000	
52.767314	1135.000000	
52.787821	1099.000000	
52.808329	1150.000000	
52.828837	1149.000000	
52.849344	1113.000000	
52.869852	1114.000000	
52.890360	1086.000000	
52.910868	1133.000000	
52.931375	1098.000000	
52.951883	1139.000000	
52.972391	1134.000000	
52.992898	1129.000000	
53.013406	1106.000000	
53.033914	1082.000000	
53.054422	1126.000000	
53.074929	1141.000000	
53.095437	1093.000000	
53.115945	1135.000000	
53.136452	1111.000000	
53.156960	1106.000000	
53.177468	1065.000000	
53.197975	1109.000000	
53.218483	1081.000000	
53.238991	1147.000000	
53.259499	1130.000000	
53.280006	1080.000000	
53.300514	1124.000000	
53.321022	1116.000000	
53.341529	1130.000000	
53.362037	1165.000000	
53.382545	1143.000000	
53.403052	1095.000000	
53.423560	1096.000000	
53.444068	1094.000000	
53.464576	1113.000000	
53.485083	1118.000000	
53.505591	1164.000000	
53.526099	1164.000000	
53.546606	1167.000000	
53.567114	1161.000000	
53.587622	1118.000000	
53.608129	1107.000000	
53.628637	1115.000000	
53.649145	1157.000000	
53.669653	1161.000000	
53.690160	1108.000000	
53.710668	1198.000000	
53.731176	1145.000000	
53.751683	1172.000000	
53.772191	1135.000000	
53.792699	1125.000000	
53.813206	1036.000000	
53.833714	1125.000000	
53.854222	1136.000000	
53.874730	1169.000000	
53.895237	1155.000000	
53.915745	1197.000000	
53.936253	1209.000000	
53.956760	1202.000000	
53.977268	1147.000000	
53.997776	1164.000000	
54.018283	1171.000000	
54.038791	1238.000000	
54.059299	1196.000000	
54.079807	1147.000000	
54.100314	1220.000000	
54.120822	1279.000000	
54.141330	1203.000000	
54.161837	1281.000000	
54.182345	1310.000000	
54.202853	1294.000000	
54.223360	1321.000000	
54.243868	1367.000000	
54.264376	1384.000000	
54.284884	1322.000000	
54.305391	1403.000000	
54.325899	1394.000000	
54.346407	1377.000000	
54.366914	1392.000000	
54.387422	1338.000000	
54.407930	1344.000000	
54.428437	1404.000000	
54.448945	1383.000000	
54.469453	1355.000000	
54.489961	1305.000000	
54.510468	1326.000000	
54.530976	1252.000000	
54.551484	1288.000000	
54.571991	1316.000000	
54.592499	1265.000000	
54.613007	1299.000000	
54.633515	1269.000000	
54.654022	1232.000000	
54.674530	1226.000000	
54.695038	1173.000000	
54.715545	1171.000000	
54.736053	1175.000000	
54.756561	1248.000000	
54.777068	1232.000000	
54.797576	1183.000000	
54.818084	1202.000000	
54.838592	1162.000000	
54.859099	1233.000000	
54.879607	1273.000000	
54.900115	1211.000000	
54.920622	1269.000000	
54.941130	1264.000000	
54.961638	1257.000000	
54.982145	1295.000000	
55.002653	1336.000000	
55.023161	1340.000000	
55.043669	1333.000000	
55.064176	1402.000000	
55.084684	1338.000000	
55.105192	1385.000000	
55.125699	1367.000000	
55.146207	1387.000000	
55.166715	1370.000000	
55.187222	1457.000000	
55.207730	1319.000000	
55.228238	1464.000000	
55.248746	1385.000000	
55.269253	1362.000000	
55.289761	1395.000000	
55.310269	1389.000000	
55.330776	1306.000000	
55.351284	1306.000000	
55.371792	1337.000000	
55.392299	1319.000000	
55.412807	1374.000000	
55.433315	1334.000000	
55.453823	1368.000000	
55.474330	1295.000000	
55.494838	1342.000000	
55.515346	1333.000000	
55.535853	1354.000000	
55.556361	1330.000000	
55.576869	1303.000000	
55.597376	1349.000000	
55.617884	1370.000000	
55.638392	1360.000000	
55.658900	1307.000000	
55.679407	1335.000000	
55.699915	1332.000000	
55.720423	1300.000000	
55.740930	1305.000000	
55.761438	1335.000000	
55.781946	1301.000000	
55.802453	1314.000000	
55.822961	1232.000000	
55.843469	1243.000000	
55.863977	1261.000000	
55.884484	1315.000000	
55.904992	1288.000000	
55.925500	1220.000000	
55.946007	1250.000000	
55.966515	1287.000000	
55.987023	1287.000000	
56.007530	1260.000000	
56.028038	1253.000000	
56.048546	1219.000000	
56.069054	1201.000000	
56.089561	1210.000000	
56.110069	1332.000000	
56.130577	1308.000000	
56.151084	1294.000000	
56.171592	1312.000000	
56.192100	1288.000000	
56.212608	1288.000000	
56.233115	1265.000000	
56.253623	1302.000000	
56.274131	1354.000000	
56.294638	1291.000000	
56.315146	1288.000000	
56.335654	1310.000000	
56.356161	1319.000000	
56.376669	1378.000000	
56.397177	1300.000000	
56.417685	1307.000000	
56.438192	1289.000000	
56.458700	1306.000000	
56.479208	1264.000000	
56.499715	1257.000000	
56.520223	1243.000000	
56.540731	1293.000000	
56.561238	1233.000000	
56.581746	1245.000000	
56.602254	1210.000000	
56.622762	1173.000000	
56.643269	1238.000000	
56.663777	1133.000000	
56.684285	1228.000000	
56.704792	1190.000000	
56.725300	1163.000000	
56.745808	1207.000000	
56.766315	1179.000000	
56.786823	1198.000000	
56.807331	1194.000000	
56.827839	1155.000000	
56.848346	1112.000000	
56.868854	1150.000000	
56.889362	1183.000000	
56.909869	1096.000000	
56.930377	1087.000000	
56.950885	1148.000000	
56.971392	1057.000000	
56.991900	1054.000000	
57.012408	1108.000000	
57.032916	1122.000000	
57.053423	1043.000000	
57.073931	1052.000000	
57.094439	1061.000000	
57.114946	1077.000000	
57.135454	1081.000000	
57.155962	1061.000000	
57.176469	1092.000000	
57.196977	1044.000000	
57.217485	1166.000000	
57.237993	1121.000000	
57.258500	1059.000000	
57.279008	1075.000000	
57.299516	1083.000000	
57.320023	1115.000000	
57.340531	1137.000000	
57.361039	1035.000000	
57.381546	1053.000000	
57.402054	1064.000000	
57.422562	1060.000000	
57.443070	1049.000000	
57.463577	1092.000000	
57.484085	1093.000000	
57.504593	1073.000000	
57.525100	1071.000000	
57.545608	1085.000000	
57.566116	1017.000000	
57.586623	1089.000000	
57.607131	1047.000000	
57.627639	1069.000000	
57.648147	1068.000000	
57.668654	1161.000000	
57.689162	1067.000000	
57.709670	1052.000000	
57.730177	1069.000000	
57.750685	1063.000000	
57.771193	1166.000000	
57.791701	1064.000000	
57.812208	1085.000000	
57.832716	1045.000000	
57.853224	1109.000000	
57.873731	1094.000000	
57.894239	1084.000000	
57.914747	1052.000000	
57.935254	1117.000000	
57.955762	1144.000000	
57.976270	1149.000000	
57.996778	1046.000000	
58.017285	1096.000000	
58.037793	1113.000000	
58.058301	1124.000000	
58.078808	1073.000000	
58.099316	1138.000000	
58.119824	1131.000000	
58.140331	1057.000000	
58.160839	1047.000000	
58.181347	1090.000000	
58.201855	1041.000000	
58.222362	1085.000000	
58.242870	1017.000000	
58.263378	1065.000000	
58.283885	1035.000000	
58.304393	1002.000000	
58.324901	1033.000000	
58.345408	1055.000000	
58.365916	1062.000000	
58.386424	1087.000000	
58.406932	1008.000000	
58.427439	1051.000000	
58.447947	1079.000000	
58.468455	1010.000000	
58.488962	1059.000000	
58.509470	1101.000000	
58.529978	1148.000000	
58.550485	1056.000000	
58.570993	1067.000000	
58.591501	1141.000000	
58.612009	1076.000000	
58.632516	1040.000000	
58.653024	1082.000000	
58.673532	1040.000000	
58.694039	1035.000000	
58.714547	1055.000000	
58.735055	1053.000000	
58.755562	1062.000000	
58.776070	1049.000000	
58.796578	1060.000000	
58.817086	1017.000000	
58.837593	1046.000000	
58.858101	1049.000000	
58.878609	1007.000000	
58.899116	968.000000	
58.919624	1022.000000	
58.940132	1073.000000	
58.960639	956.000000	
58.981147	1023.000000	
59.001655	1002.000000	
59.022163	1017.000000	
59.042670	1004.000000	
59.063178	1051.000000	
59.083686	995.000000	
59.104193	1022.000000	
59.124701	1049.000000	
59.145209	973.000000	
59.165716	997.000000	
59.186224	976.000000	
59.206732	992.000000	
59.227240	1011.000000	
59.247747	962.000000	
59.268255	1007.000000	
59.288763	967.000000	
59.309270	1003.000000	
59.329778	995.000000	
59.350286	1009.000000	
59.370794	916.000000	
59.391301	952.000000	
59.411809	1012.000000	
59.432317	961.000000	
59.452824	999.000000	
59.473332	971.000000	
59.493840	953.000000	
59.514347	988.000000	
59.534855	946.000000	
59.555363	971.000000	
59.575871	944.000000	
59.596378	953.000000	
59.616886	936.000000	
59.637394	939.000000	
59.657901	970.000000	
59.678409	968.000000	
59.698917	926.000000	
59.719424	878.000000	
59.739932	978.000000	
59.760440	970.000000	
59.780948	970.000000	
59.801455	941.000000	
59.821963	910.000000	
59.842471	973.000000	
59.862978	932.000000	
59.883486	950.000000	
59.903994	956.000000	
59.924501	920.000000	
59.945009	990.000000	
59.965517	956.000000	
59.986025	976.000000	
60.006532	984.000000	
