;content of C:\2026\IF\Dr-IVAN\26-02-2026\FT.raw - (Diffrac Plus V4 file)
_FILEVERSION = 3
_SAMPLE = FT
_+SAMPLE
_USER = Lab Manager
_GONIOMETER_CODE = 21
_STAGE_CODE = 7
; Goniometer : D8 theta/theta, stage : Chi drive
_SAMPLE_CHANGER_CODE = 0
_ATTACHMENTS_CODE = 0
_GONIOMETER_RADIUS = 280
_SOLLER_SLITS = 2
_FIXED_DETSLIT = 6
_MONOCHROMATOR = 0
; Incident beam monochromator : None
_BETA_FILTER = N
_ANALYZER_CODE = 0
; Received beam analyzer : None
_DATEMEASURED = 25-Feb-2026 17:31:20
_RUNTIME = 1737.796
_WL_UNIT = A
_WL1 = 1.540600
_WL2 = 1.544390
_WL3 = 1.392220
_WLRATIO = 0.500000
_ANODE = Cu
_V4_INF_USER = Lab Manager
_V4_INF_SAMPLEID = FT
_V4_INF_CREATOR = BrmlToV4Converter
_V4_INF_CREATOR_VERSION = 7.3.1.0

; Data for range 1
_DRIVE = COUPLED
_STEPTIME = 115.2
_STEPSIZE = 0.020508
_STEPMODE = C
_START = 4.000000
_THETA = 2.000000
_2THETA = 4.000000
_PHI = 287.437500
_DIVERGENCE = 0.379996
_DETECTORSLIT = out
_TIMESTARTED = 0
_ROTATION_SPEED = 15
_KV = 40
_MA = 35
_RANGE_WL = 1.541800
_3DPLANE = 0
_V4_PSD2THETA = 9999.000000
_V4_PSDCHANNEL1 = 0
_V4_PSDAPERTURE = 2.953109
_V4_PSDTYPE = 5
_V4_PSDFIXED = 0
_V4_COUNTERS_MASK = 1
_V4_DRIVES_MASK = 0
_V4_ENCODERS_MASK = 0
_2THETACOUNTS = 1
; 2THETA	Cnt2_D1	
4.000000	432.000000	
4.020508	490.000000	
4.041015	493.000000	
4.061523	522.000000	
4.082031	491.000000	
4.102539	508.000000	
4.123046	484.000000	
4.143554	436.000000	
4.164062	451.000000	
4.184569	477.000000	
4.205077	427.000000	
4.225585	456.000000	
4.246092	419.000000	
4.266600	395.000000	
4.287108	462.000000	
4.307616	420.000000	
4.328123	447.000000	
4.348631	439.000000	
4.369139	434.000000	
4.389646	460.000000	
4.410154	452.000000	
4.430662	426.000000	
4.451169	413.000000	
4.471677	406.000000	
4.492185	426.000000	
4.512693	420.000000	
4.533200	401.000000	
4.553708	384.000000	
4.574216	421.000000	
4.594723	416.000000	
4.615231	426.000000	
4.635739	422.000000	
4.656246	429.000000	
4.676754	432.000000	
4.697262	407.000000	
4.717770	437.000000	
4.738277	438.000000	
4.758785	447.000000	
4.779293	403.000000	
4.799800	437.000000	
4.820308	379.000000	
4.840816	432.000000	
4.861323	431.000000	
4.881831	409.000000	
4.902339	398.000000	
4.922847	401.000000	
4.943354	398.000000	
4.963862	416.000000	
4.984370	440.000000	
5.004877	380.000000	
5.025385	405.000000	
5.045893	403.000000	
5.066400	370.000000	
5.086908	381.000000	
5.107416	385.000000	
5.127924	412.000000	
5.148431	416.000000	
5.168939	404.000000	
5.189447	349.000000	
5.209954	400.000000	
5.230462	412.000000	
5.250970	420.000000	
5.271477	411.000000	
5.291985	369.000000	
5.312493	390.000000	
5.333001	378.000000	
5.353508	419.000000	
5.374016	387.000000	
5.394524	331.000000	
5.415031	379.000000	
5.435539	395.000000	
5.456047	393.000000	
5.476554	366.000000	
5.497062	421.000000	
5.517570	386.000000	
5.538078	381.000000	
5.558585	383.000000	
5.579093	380.000000	
5.599601	377.000000	
5.620108	399.000000	
5.640616	359.000000	
5.661124	410.000000	
5.681632	377.000000	
5.702139	419.000000	
5.722647	383.000000	
5.743155	360.000000	
5.763662	420.000000	
5.784170	403.000000	
5.804678	398.000000	
5.825185	411.000000	
5.845693	370.000000	
5.866201	353.000000	
5.886709	411.000000	
5.907216	391.000000	
5.927724	398.000000	
5.948232	379.000000	
5.968739	449.000000	
5.989247	367.000000	
6.009755	375.000000	
6.030262	412.000000	
6.050770	391.000000	
6.071278	407.000000	
6.091786	410.000000	
6.112293	391.000000	
6.132801	432.000000	
6.153309	381.000000	
6.173816	401.000000	
6.194324	368.000000	
6.214832	393.000000	
6.235339	406.000000	
6.255847	381.000000	
6.276355	409.000000	
6.296863	431.000000	
6.317370	384.000000	
6.337878	372.000000	
6.358386	403.000000	
6.378893	392.000000	
6.399401	408.000000	
6.419909	383.000000	
6.440416	393.000000	
6.460924	411.000000	
6.481432	441.000000	
6.501940	402.000000	
6.522447	398.000000	
6.542955	404.000000	
6.563463	426.000000	
6.583970	385.000000	
6.604478	371.000000	
6.624986	399.000000	
6.645493	410.000000	
6.666001	419.000000	
6.686509	418.000000	
6.707017	402.000000	
6.727524	435.000000	
6.748032	390.000000	
6.768540	405.000000	
6.789047	379.000000	
6.809555	402.000000	
6.830063	382.000000	
6.850570	374.000000	
6.871078	402.000000	
6.891586	404.000000	
6.912094	411.000000	
6.932601	409.000000	
6.953109	392.000000	
6.973617	422.000000	
6.994124	402.000000	
7.014632	391.000000	
7.035140	426.000000	
7.055647	397.000000	
7.076155	404.000000	
7.096663	417.000000	
7.117171	426.000000	
7.137678	411.000000	
7.158186	376.000000	
7.178694	419.000000	
7.199201	430.000000	
7.219709	409.000000	
7.240217	428.000000	
7.260725	435.000000	
7.281232	422.000000	
7.301740	387.000000	
7.322248	387.000000	
7.342755	431.000000	
7.363263	403.000000	
7.383771	448.000000	
7.404278	406.000000	
7.424786	406.000000	
7.445294	419.000000	
7.465802	404.000000	
7.486309	371.000000	
7.506817	424.000000	
7.527325	432.000000	
7.547832	424.000000	
7.568340	434.000000	
7.588848	402.000000	
7.609355	397.000000	
7.629863	419.000000	
7.650371	413.000000	
7.670879	392.000000	
7.691386	417.000000	
7.711894	413.000000	
7.732402	437.000000	
7.752909	417.000000	
7.773417	424.000000	
7.793925	428.000000	
7.814432	433.000000	
7.834940	409.000000	
7.855448	436.000000	
7.875956	416.000000	
7.896463	465.000000	
7.916971	474.000000	
7.937479	451.000000	
7.957986	408.000000	
7.978494	402.000000	
7.999002	479.000000	
8.019509	433.000000	
8.040017	437.000000	
8.060525	441.000000	
8.081033	406.000000	
8.101540	431.000000	
8.122048	407.000000	
8.142556	436.000000	
8.163063	447.000000	
8.183571	433.000000	
8.204079	432.000000	
8.224586	467.000000	
8.245094	455.000000	
8.265602	453.000000	
8.286110	435.000000	
8.306617	433.000000	
8.327125	418.000000	
8.347633	447.000000	
8.368140	433.000000	
8.388648	465.000000	
8.409156	449.000000	
8.429663	468.000000	
8.450171	449.000000	
8.470679	457.000000	
8.491187	422.000000	
8.511694	437.000000	
8.532202	488.000000	
8.552710	442.000000	
8.573217	435.000000	
8.593725	444.000000	
8.614233	416.000000	
8.634740	465.000000	
8.655248	440.000000	
8.675756	464.000000	
8.696264	444.000000	
8.716771	508.000000	
8.737279	484.000000	
8.757787	487.000000	
8.778294	458.000000	
8.798802	451.000000	
8.819310	498.000000	
8.839818	461.000000	
8.860325	476.000000	
8.880833	478.000000	
8.901341	485.000000	
8.921848	467.000000	
8.942356	481.000000	
8.962864	501.000000	
8.983371	494.000000	
9.003879	475.000000	
9.024387	486.000000	
9.044895	483.000000	
9.065402	464.000000	
9.085910	475.000000	
9.106418	475.000000	
9.126925	506.000000	
9.147433	477.000000	
9.167941	525.000000	
9.188448	475.000000	
9.208956	496.000000	
9.229464	447.000000	
9.249972	503.000000	
9.270479	466.000000	
9.290987	526.000000	
9.311495	500.000000	
9.332002	469.000000	
9.352510	546.000000	
9.373018	486.000000	
9.393525	534.000000	
9.414033	548.000000	
9.434541	531.000000	
9.455049	568.000000	
9.475556	527.000000	
9.496064	520.000000	
9.516572	533.000000	
9.537079	543.000000	
9.557587	530.000000	
9.578095	518.000000	
9.598602	517.000000	
9.619110	553.000000	
9.639618	522.000000	
9.660126	553.000000	
9.680633	535.000000	
9.701141	543.000000	
9.721649	569.000000	
9.742156	545.000000	
9.762664	496.000000	
9.783172	573.000000	
9.803679	568.000000	
9.824187	533.000000	
9.844695	592.000000	
9.865203	538.000000	
9.885710	574.000000	
9.906218	602.000000	
9.926726	576.000000	
9.947233	620.000000	
9.967741	605.000000	
9.988249	591.000000	
10.008756	634.000000	
10.029264	631.000000	
10.049772	599.000000	
10.070280	636.000000	
10.090787	682.000000	
10.111295	726.000000	
10.131803	673.000000	
10.152310	732.000000	
10.172818	737.000000	
10.193326	770.000000	
10.213833	796.000000	
10.234341	844.000000	
10.254849	941.000000	
10.275357	983.000000	
10.295864	1005.000000	
10.316372	1062.000000	
10.336880	1141.000000	
10.357387	1216.000000	
10.377895	1246.000000	
10.398403	1337.000000	
10.418911	1442.000000	
10.439418	1557.000000	
10.459926	1623.000000	
10.480434	1789.000000	
10.500941	2053.000000	
10.521449	2133.000000	
10.541957	2415.000000	
10.562464	2689.000000	
10.582972	2951.000000	
10.603480	3259.000000	
10.623988	3566.000000	
10.644495	4004.000000	
10.665003	4275.000000	
10.685511	4496.000000	
10.706018	4343.000000	
10.726526	3993.000000	
10.747034	3199.000000	
10.767541	2578.000000	
10.788049	2250.000000	
10.808557	1963.000000	
10.829065	1894.000000	
10.849572	1688.000000	
10.870080	1745.000000	
10.890588	1656.000000	
10.911095	1506.000000	
10.931603	1425.000000	
10.952111	1323.000000	
10.972618	1230.000000	
10.993126	1190.000000	
11.013634	1109.000000	
11.034142	1036.000000	
11.054649	1023.000000	
11.075157	989.000000	
11.095665	973.000000	
11.116172	1067.000000	
11.136680	1049.000000	
11.157188	1001.000000	
11.177695	1010.000000	
11.198203	1001.000000	
11.218711	1001.000000	
11.239219	1047.000000	
11.259726	1063.000000	
11.280234	1029.000000	
11.300742	1092.000000	
11.321249	1146.000000	
11.341757	1297.000000	
11.362265	1222.000000	
11.382772	1235.000000	
11.403280	1374.000000	
11.423788	1450.000000	
11.444296	1605.000000	
11.464803	1607.000000	
11.485311	1761.000000	
11.505819	1915.000000	
11.526326	2070.000000	
11.546834	2262.000000	
11.567342	2451.000000	
11.587849	2679.000000	
11.608357	2869.000000	
11.628865	3198.000000	
11.649373	3505.000000	
11.669880	4065.000000	
11.690388	4671.000000	
11.710896	5324.000000	
11.731403	6039.000000	
11.751911	6918.000000	
11.772419	7974.000000	
11.792926	9062.000000	
11.813434	10124.000000	
11.833942	10887.000000	
11.854450	11070.000000	
11.874957	10329.000000	
11.895465	9190.000000	
11.915973	7225.000000	
11.936480	5562.000000	
11.956988	4407.000000	
11.977496	3660.000000	
11.998004	3009.000000	
12.018511	2724.000000	
12.039019	2345.000000	
12.059527	2298.000000	
12.080034	2118.000000	
12.100542	1945.000000	
12.121050	1847.000000	
12.141557	1689.000000	
12.162065	1722.000000	
12.182573	1681.000000	
12.203081	1622.000000	
12.223588	1574.000000	
12.244096	1571.000000	
12.264604	1551.000000	
12.285111	1614.000000	
12.305619	1507.000000	
12.326127	1513.000000	
12.346634	1447.000000	
12.367142	1535.000000	
12.387650	1506.000000	
12.408158	1482.000000	
12.428665	1484.000000	
12.449173	1500.000000	
12.469681	1431.000000	
12.490188	1488.000000	
12.510696	1528.000000	
12.531204	1522.000000	
12.551711	1503.000000	
12.572219	1504.000000	
12.592727	1566.000000	
12.613235	1511.000000	
12.633742	1531.000000	
12.654250	1551.000000	
12.674758	1581.000000	
12.695265	1663.000000	
12.715773	1675.000000	
12.736281	1688.000000	
12.756788	1646.000000	
12.777296	1771.000000	
12.797804	1778.000000	
12.818312	1797.000000	
12.838819	1867.000000	
12.859327	1881.000000	
12.879835	1995.000000	
12.900342	2065.000000	
12.920850	2186.000000	
12.941358	2254.000000	
12.961865	2310.000000	
12.982373	2419.000000	
13.002881	2605.000000	
13.023389	2749.000000	
13.043896	2987.000000	
13.064404	3171.000000	
13.084912	3467.000000	
13.105419	3626.000000	
13.125927	3848.000000	
13.146435	4213.000000	
13.166942	4653.000000	
13.187450	5091.000000	
13.207958	5585.000000	
13.228466	6061.000000	
13.248973	6413.000000	
13.269481	7153.000000	
13.289989	7642.000000	
13.310496	8288.000000	
13.331004	8855.000000	
13.351512	8945.000000	
13.372019	9057.000000	
13.392527	8827.000000	
13.413035	8409.000000	
13.433543	7925.000000	
13.454050	7375.000000	
13.474558	6713.000000	
13.495066	6376.000000	
13.515573	6062.000000	
13.536081	6241.000000	
13.556589	6118.000000	
13.577097	6287.000000	
13.597604	6364.000000	
13.618112	6153.000000	
13.638620	5818.000000	
13.659127	5266.000000	
13.679635	4479.000000	
13.700143	3873.000000	
13.720650	3319.000000	
13.741158	2990.000000	
13.761666	2668.000000	
13.782174	2394.000000	
13.802681	2333.000000	
13.823189	2193.000000	
13.843697	2222.000000	
13.864204	2196.000000	
13.884712	2032.000000	
13.905220	1917.000000	
13.925727	2028.000000	
13.946235	1944.000000	
13.966743	1953.000000	
13.987251	1906.000000	
14.007758	1863.000000	
14.028266	1843.000000	
14.048774	1861.000000	
14.069281	1836.000000	
14.089789	1864.000000	
14.110297	1783.000000	
14.130804	1873.000000	
14.151312	1844.000000	
14.171820	1739.000000	
14.192328	1738.000000	
14.212835	1795.000000	
14.233343	1776.000000	
14.253851	1751.000000	
14.274358	1690.000000	
14.294866	1748.000000	
14.315374	1775.000000	
14.335881	1728.000000	
14.356389	1820.000000	
14.376897	1788.000000	
14.397405	1713.000000	
14.417912	1798.000000	
14.438420	1752.000000	
14.458928	1763.000000	
14.479435	1773.000000	
14.499943	1766.000000	
14.520451	1755.000000	
14.540958	1697.000000	
14.561466	1785.000000	
14.581974	1763.000000	
14.602482	1655.000000	
14.622989	1741.000000	
14.643497	1828.000000	
14.664005	1724.000000	
14.684512	1758.000000	
14.705020	1755.000000	
14.725528	1725.000000	
14.746035	1742.000000	
14.766543	1802.000000	
14.787051	1772.000000	
14.807559	1772.000000	
14.828066	1794.000000	
14.848574	1782.000000	
14.869082	1773.000000	
14.889589	1778.000000	
14.910097	1800.000000	
14.930605	1844.000000	
14.951112	1861.000000	
14.971620	1865.000000	
14.992128	1824.000000	
15.012636	1800.000000	
15.033143	1739.000000	
15.053651	1891.000000	
15.074159	1849.000000	
15.094666	1860.000000	
15.115174	1883.000000	
15.135682	1828.000000	
15.156190	1797.000000	
15.176697	1798.000000	
15.197205	1770.000000	
15.217713	1912.000000	
15.238220	1838.000000	
15.258728	1810.000000	
15.279236	1929.000000	
15.299743	1859.000000	
15.320251	1835.000000	
15.340759	1850.000000	
15.361267	1894.000000	
15.381774	1833.000000	
15.402282	1850.000000	
15.422790	1933.000000	
15.443297	1994.000000	
15.463805	1919.000000	
15.484313	1936.000000	
15.504820	1944.000000	
15.525328	1872.000000	
15.545836	2072.000000	
15.566344	1995.000000	
15.586851	2021.000000	
15.607359	1968.000000	
15.627867	1977.000000	
15.648374	2000.000000	
15.668882	1976.000000	
15.689390	2099.000000	
15.709897	2049.000000	
15.730405	2015.000000	
15.750913	2062.000000	
15.771421	2269.000000	
15.791928	2205.000000	
15.812436	2235.000000	
15.832944	2256.000000	
15.853451	2200.000000	
15.873959	2255.000000	
15.894467	2270.000000	
15.914974	2304.000000	
15.935482	2372.000000	
15.955990	2412.000000	
15.976498	2351.000000	
15.997005	2374.000000	
16.017513	2382.000000	
16.038021	2402.000000	
16.058528	2346.000000	
16.079036	2433.000000	
16.099544	2538.000000	
16.120051	2502.000000	
16.140559	2582.000000	
16.161067	2537.000000	
16.181575	2689.000000	
16.202082	2628.000000	
16.222590	2803.000000	
16.243098	2911.000000	
16.263605	3049.000000	
16.284113	3303.000000	
16.304621	3306.000000	
16.325128	3834.000000	
16.345636	4078.000000	
16.366144	4355.000000	
16.386652	4799.000000	
16.407159	5280.000000	
16.427667	5659.000000	
16.448175	6290.000000	
16.468682	6890.000000	
16.489190	7326.000000	
16.509698	8091.000000	
16.530205	8531.000000	
16.550713	9654.000000	
16.571221	10371.000000	
16.591729	11340.000000	
16.612236	12358.000000	
16.632744	13512.000000	
16.653252	14894.000000	
16.673759	16119.000000	
16.694267	17023.000000	
16.714775	17884.000000	
16.735283	18317.000000	
16.755790	17571.000000	
16.776298	15277.000000	
16.796806	12344.000000	
16.817313	9312.000000	
16.837821	7239.000000	
16.858329	5675.000000	
16.878836	4737.000000	
16.899344	4316.000000	
16.919852	3942.000000	
16.940360	3594.000000	
16.960867	3602.000000	
16.981375	3457.000000	
17.001883	3208.000000	
17.022390	3225.000000	
17.042898	3273.000000	
17.063406	3313.000000	
17.083913	3265.000000	
17.104421	3234.000000	
17.124929	3252.000000	
17.145437	3324.000000	
17.165944	3346.000000	
17.186452	3500.000000	
17.206960	3405.000000	
17.227467	3522.000000	
17.247975	3559.000000	
17.268483	3649.000000	
17.288990	3780.000000	
17.309498	3723.000000	
17.330006	3744.000000	
17.350514	3689.000000	
17.371021	3740.000000	
17.391529	3540.000000	
17.412037	3401.000000	
17.432544	3416.000000	
17.453052	3285.000000	
17.473560	3250.000000	
17.494067	3196.000000	
17.514575	3033.000000	
17.535083	3083.000000	
17.555591	3099.000000	
17.576098	3045.000000	
17.596606	3125.000000	
17.617114	3124.000000	
17.637621	3117.000000	
17.658129	3200.000000	
17.678637	3246.000000	
17.699144	3207.000000	
17.719652	3405.000000	
17.740160	3406.000000	
17.760668	3591.000000	
17.781175	3759.000000	
17.801683	3737.000000	
17.822191	4153.000000	
17.842698	4197.000000	
17.863206	4392.000000	
17.883714	4551.000000	
17.904221	4679.000000	
17.924729	4997.000000	
17.945237	5062.000000	
17.965745	5323.000000	
17.986252	5449.000000	
18.006760	5649.000000	
18.027268	5851.000000	
18.047775	6129.000000	
18.068283	6349.000000	
18.088791	6704.000000	
18.109298	6819.000000	
18.129806	7076.000000	
18.150314	7294.000000	
18.170822	7378.000000	
18.191329	7230.000000	
18.211837	7181.000000	
18.232345	6909.000000	
18.252852	6854.000000	
18.273360	6502.000000	
18.293868	6596.000000	
18.314376	6397.000000	
18.334883	6635.000000	
18.355391	6674.000000	
18.375899	6838.000000	
18.396406	6941.000000	
18.416914	7153.000000	
18.437422	7465.000000	
18.457929	7477.000000	
18.478437	7473.000000	
18.498945	7969.000000	
18.519453	7849.000000	
18.539960	7918.000000	
18.560468	7608.000000	
18.580976	7720.000000	
18.601483	7641.000000	
18.621991	7683.000000	
18.642499	7909.000000	
18.663006	7922.000000	
18.683514	8104.000000	
18.704022	8162.000000	
18.724530	8295.000000	
18.745037	8460.000000	
18.765545	8716.000000	
18.786053	8762.000000	
18.806560	8479.000000	
18.827068	8372.000000	
18.847576	8013.000000	
18.868083	7461.000000	
18.888591	7116.000000	
18.909099	6379.000000	
18.929607	6078.000000	
18.950114	5534.000000	
18.970622	5061.000000	
18.991130	4668.000000	
19.011637	4401.000000	
19.032145	4139.000000	
19.052653	3906.000000	
19.073160	3764.000000	
19.093668	3613.000000	
19.114176	3380.000000	
19.134684	3463.000000	
19.155191	3295.000000	
19.175699	3285.000000	
19.196207	3272.000000	
19.216714	3194.000000	
19.237222	3055.000000	
19.257730	3140.000000	
19.278237	3070.000000	
19.298745	3012.000000	
19.319253	2927.000000	
19.339761	2954.000000	
19.360268	2938.000000	
19.380776	2903.000000	
19.401284	2930.000000	
19.421791	2885.000000	
19.442299	2937.000000	
19.462807	3037.000000	
19.483314	3085.000000	
19.503822	2943.000000	
19.524330	3051.000000	
19.544838	3070.000000	
19.565345	3104.000000	
19.585853	3261.000000	
19.606361	3314.000000	
19.626868	3525.000000	
19.647376	3440.000000	
19.667884	3658.000000	
19.688391	3649.000000	
19.708899	3834.000000	
19.729407	3980.000000	
19.749915	3989.000000	
19.770422	4130.000000	
19.790930	4351.000000	
19.811438	4454.000000	
19.831945	4590.000000	
19.852453	4747.000000	
19.872961	5029.000000	
19.893469	5011.000000	
19.913976	5114.000000	
19.934484	5212.000000	
19.954992	5251.000000	
19.975499	5048.000000	
19.996007	4991.000000	
20.016515	4894.000000	
20.037022	4679.000000	
20.057530	4518.000000	
20.078038	4241.000000	
20.098546	4089.000000	
20.119053	3812.000000	
20.139561	3748.000000	
20.160069	3584.000000	
20.180576	3286.000000	
20.201084	3256.000000	
20.221592	3052.000000	
20.242099	3146.000000	
20.262607	3028.000000	
20.283115	2952.000000	
20.303623	2942.000000	
20.324130	2837.000000	
20.344638	2948.000000	
20.365146	2892.000000	
20.385653	2832.000000	
20.406161	2839.000000	
20.426669	2819.000000	
20.447176	2776.000000	
20.467684	2762.000000	
20.488192	2845.000000	
20.508700	2781.000000	
20.529207	2805.000000	
20.549715	2856.000000	
20.570223	2759.000000	
20.590730	2716.000000	
20.611238	2747.000000	
20.631746	2721.000000	
20.652253	2768.000000	
20.672761	2766.000000	
20.693269	2780.000000	
20.713777	2858.000000	
20.734284	2765.000000	
20.754792	2785.000000	
20.775300	2760.000000	
20.795807	2771.000000	
20.816315	2699.000000	
20.836823	2852.000000	
20.857330	2777.000000	
20.877838	2880.000000	
20.898346	2901.000000	
20.918854	2768.000000	
20.939361	2909.000000	
20.959869	3021.000000	
20.980377	2929.000000	
21.000884	2919.000000	
21.021392	3010.000000	
21.041900	3056.000000	
21.062407	3030.000000	
21.082915	3127.000000	
21.103423	3210.000000	
21.123931	3163.000000	
21.144438	3276.000000	
21.164946	3204.000000	
21.185454	3324.000000	
21.205961	3493.000000	
21.226469	3540.000000	
21.246977	3712.000000	
21.267484	3759.000000	
21.287992	3869.000000	
21.308500	3852.000000	
21.329008	4074.000000	
21.349515	4043.000000	
21.370023	4166.000000	
21.390531	4190.000000	
21.411038	4444.000000	
21.431546	4308.000000	
21.452054	4344.000000	
21.472562	4354.000000	
21.493069	4477.000000	
21.513577	4418.000000	
21.534085	4509.000000	
21.554592	4487.000000	
21.575100	4527.000000	
21.595608	4570.000000	
21.616115	4776.000000	
21.636623	4577.000000	
21.657131	4785.000000	
21.677639	4644.000000	
21.698146	4636.000000	
21.718654	4669.000000	
21.739162	4739.000000	
21.759669	4543.000000	
21.780177	4648.000000	
21.800685	4750.000000	
21.821192	4616.000000	
21.841700	4661.000000	
21.862208	4590.000000	
21.882716	4277.000000	
21.903223	4284.000000	
21.923731	4048.000000	
21.944239	3909.000000	
21.964746	3876.000000	
21.985254	3598.000000	
22.005762	3563.000000	
22.026269	3447.000000	
22.046777	3415.000000	
22.067285	3284.000000	
22.087793	3234.000000	
22.108300	3241.000000	
22.128808	3221.000000	
22.149316	3115.000000	
22.169823	3228.000000	
22.190331	3256.000000	
22.210839	3147.000000	
22.231346	3073.000000	
22.251854	3167.000000	
22.272362	3176.000000	
22.292870	3119.000000	
22.313377	3159.000000	
22.333885	3310.000000	
22.354393	3132.000000	
22.374900	3165.000000	
22.395408	3193.000000	
22.415916	3215.000000	
22.436423	3092.000000	
22.456931	3229.000000	
22.477439	3210.000000	
22.497947	3192.000000	
22.518454	3304.000000	
22.538962	3305.000000	
22.559470	3406.000000	
22.579977	3323.000000	
22.600485	3406.000000	
22.620993	3579.000000	
22.641500	3499.000000	
22.662008	3436.000000	
22.682516	3577.000000	
22.703024	3686.000000	
22.723531	3675.000000	
22.744039	3943.000000	
22.764547	3979.000000	
22.785054	4120.000000	
22.805562	4312.000000	
22.826070	4483.000000	
22.846577	4857.000000	
22.867085	5004.000000	
22.887593	5192.000000	
22.908101	5464.000000	
22.928608	5718.000000	
22.949116	6050.000000	
22.969624	6251.000000	
22.990131	6489.000000	
23.010639	6555.000000	
23.031147	6898.000000	
23.051655	7308.000000	
23.072162	7580.000000	
23.092670	7651.000000	
23.113178	7915.000000	
23.133685	8209.000000	
23.154193	8236.000000	
23.174701	8355.000000	
23.195208	8806.000000	
23.215716	8377.000000	
23.236224	7867.000000	
23.256732	7704.000000	
23.277239	6992.000000	
23.297747	6510.000000	
23.318255	5864.000000	
23.338762	5475.000000	
23.359270	5096.000000	
23.379778	4913.000000	
23.400285	4756.000000	
23.420793	4678.000000	
23.441301	4618.000000	
23.461809	4460.000000	
23.482316	4370.000000	
23.502824	4148.000000	
23.523332	4077.000000	
23.543839	4126.000000	
23.564347	3881.000000	
23.584855	3874.000000	
23.605362	3792.000000	
23.625870	3759.000000	
23.646378	3785.000000	
23.666886	3843.000000	
23.687393	3773.000000	
23.707901	3944.000000	
23.728409	3916.000000	
23.748916	3769.000000	
23.769424	3755.000000	
23.789932	3826.000000	
23.810439	4009.000000	
23.830947	4010.000000	
23.851455	3902.000000	
23.871963	4199.000000	
23.892470	4151.000000	
23.912978	4143.000000	
23.933486	4123.000000	
23.953993	4198.000000	
23.974501	4244.000000	
23.995009	4304.000000	
24.015516	4449.000000	
24.036024	4294.000000	
24.056532	4340.000000	
24.077040	4293.000000	
24.097547	4294.000000	
24.118055	4287.000000	
24.138563	4277.000000	
24.159070	4337.000000	
24.179578	4300.000000	
24.200086	4301.000000	
24.220593	4299.000000	
24.241101	4319.000000	
24.261609	4335.000000	
24.282117	4381.000000	
24.302624	4326.000000	
24.323132	4378.000000	
24.343640	4343.000000	
24.364147	4191.000000	
24.384655	4003.000000	
24.405163	3986.000000	
24.425670	3945.000000	
24.446178	3813.000000	
24.466686	3734.000000	
24.487194	3765.000000	
24.507701	3750.000000	
24.528209	3635.000000	
24.548717	3683.000000	
24.569224	3835.000000	
24.589732	3671.000000	
24.610240	3772.000000	
24.630748	3774.000000	
24.651255	3832.000000	
24.671763	3979.000000	
24.692271	4032.000000	
24.712778	3856.000000	
24.733286	3917.000000	
24.753794	4003.000000	
24.774301	4120.000000	
24.794809	4095.000000	
24.815317	4194.000000	
24.835825	4082.000000	
24.856332	4191.000000	
24.876840	4233.000000	
24.897348	4241.000000	
24.917855	4119.000000	
24.938363	4090.000000	
24.958871	4188.000000	
24.979378	4161.000000	
24.999886	4101.000000	
25.020394	4174.000000	
25.040902	4213.000000	
25.061409	4397.000000	
25.081917	4210.000000	
25.102425	4205.000000	
25.122932	4238.000000	
25.143440	4320.000000	
25.163948	4464.000000	
25.184455	4523.000000	
25.204963	4602.000000	
25.225471	4471.000000	
25.245979	4749.000000	
25.266486	4708.000000	
25.286994	4734.000000	
25.307502	4951.000000	
25.328009	4995.000000	
25.348517	4969.000000	
25.369025	5260.000000	
25.389532	5341.000000	
25.410040	5400.000000	
25.430548	5406.000000	
25.451056	5638.000000	
25.471563	5814.000000	
25.492071	5992.000000	
25.512579	5908.000000	
25.533086	6008.000000	
25.553594	6208.000000	
25.574102	6242.000000	
25.594609	6387.000000	
25.615117	6407.000000	
25.635625	6462.000000	
25.656133	6217.000000	
25.676640	6525.000000	
25.697148	6354.000000	
25.717656	6458.000000	
25.738163	6434.000000	
25.758671	6592.000000	
25.779179	6488.000000	
25.799686	6528.000000	
25.820194	6628.000000	
25.840702	6668.000000	
25.861210	6820.000000	
25.881717	7084.000000	
25.902225	7416.000000	
25.922733	7712.000000	
25.943240	8235.000000	
25.963748	8878.000000	
25.984256	9550.000000	
26.004763	10363.000000	
26.025271	10956.000000	
26.045779	12258.000000	
26.066287	13119.000000	
26.086794	14267.000000	
26.107302	15514.000000	
26.127810	16486.000000	
26.148317	17551.000000	
26.168825	18457.000000	
26.189333	19666.000000	
26.209841	20317.000000	
26.230348	21190.000000	
26.250856	22380.000000	
26.271364	23572.000000	
26.291871	24502.000000	
26.312379	25495.000000	
26.332887	26393.000000	
26.353394	27048.000000	
26.373902	27768.000000	
26.394410	28092.000000	
26.414918	27354.000000	
26.435425	26447.000000	
26.455933	24320.000000	
26.476441	22326.000000	
26.496948	19357.000000	
26.517456	16624.000000	
26.537964	14506.000000	
26.558471	12527.000000	
26.578979	10600.000000	
26.599487	9496.000000	
26.619995	8712.000000	
26.640502	7783.000000	
26.661010	7492.000000	
26.681518	7143.000000	
26.702025	6993.000000	
26.722533	6683.000000	
26.743041	6566.000000	
26.763548	6398.000000	
26.784056	6395.000000	
26.804564	6223.000000	
26.825072	6142.000000	
26.845579	6358.000000	
26.866087	6325.000000	
26.886595	6245.000000	
26.907102	6370.000000	
26.927610	6291.000000	
26.948118	6416.000000	
26.968625	6406.000000	
26.989133	6482.000000	
27.009641	6715.000000	
27.030149	6818.000000	
27.050656	7013.000000	
27.071164	7195.000000	
27.091672	7368.000000	
27.112179	7591.000000	
27.132687	7946.000000	
27.153195	8255.000000	
27.173702	8517.000000	
27.194210	8861.000000	
27.214718	9580.000000	
27.235226	9839.000000	
27.255733	10209.000000	
27.276241	11074.000000	
27.296749	11715.000000	
27.317256	12354.000000	
27.337764	13203.000000	
27.358272	14008.000000	
27.378779	15173.000000	
27.399287	15712.000000	
27.419795	16530.000000	
27.440303	17517.000000	
27.460810	18292.000000	
27.481318	19223.000000	
27.501826	19743.000000	
27.522333	20224.000000	
27.542841	21127.000000	
27.563349	21601.000000	
27.583856	21926.000000	
27.604364	22172.000000	
27.624872	22446.000000	
27.645380	22937.000000	
27.665887	23385.000000	
27.686395	23582.000000	
27.706903	23518.000000	
27.727410	23737.000000	
27.747918	23601.000000	
27.768426	22577.000000	
27.788934	20937.000000	
27.809441	19184.000000	
27.829949	17037.000000	
27.850457	14978.000000	
27.870964	12781.000000	
27.891472	11135.000000	
27.911980	9751.000000	
27.932487	8480.000000	
27.952995	7540.000000	
27.973503	6843.000000	
27.994011	6141.000000	
28.014518	5684.000000	
28.035026	5495.000000	
28.055534	5254.000000	
28.076041	5014.000000	
28.096549	4673.000000	
28.117057	4696.000000	
28.137564	4555.000000	
28.158072	4428.000000	
28.178580	4342.000000	
28.199088	4186.000000	
28.219595	4104.000000	
28.240103	3968.000000	
28.260611	4030.000000	
28.281118	3860.000000	
28.301626	3832.000000	
28.322134	3996.000000	
28.342641	3958.000000	
28.363149	3785.000000	
28.383657	3766.000000	
28.404165	3720.000000	
28.424672	3846.000000	
28.445180	3620.000000	
28.465688	3605.000000	
28.486195	3638.000000	
28.506703	3489.000000	
28.527211	3553.000000	
28.547718	3413.000000	
28.568226	3364.000000	
28.588734	3317.000000	
28.609242	3431.000000	
28.629749	3323.000000	
28.650257	3146.000000	
28.670765	3112.000000	
28.691272	3138.000000	
28.711780	3047.000000	
28.732288	3155.000000	
28.752795	3098.000000	
28.773303	2998.000000	
28.793811	3144.000000	
28.814319	3070.000000	
28.834826	3075.000000	
28.855334	3046.000000	
28.875842	3045.000000	
28.896349	2977.000000	
28.916857	3036.000000	
28.937365	3041.000000	
28.957872	2948.000000	
28.978380	3065.000000	
28.998888	2856.000000	
29.019396	2950.000000	
29.039903	2975.000000	
29.060411	2920.000000	
29.080919	2997.000000	
29.101426	2904.000000	
29.121934	2960.000000	
29.142442	2901.000000	
29.162949	2916.000000	
29.183457	2975.000000	
29.203965	2996.000000	
29.224473	2821.000000	
29.244980	3059.000000	
29.265488	2975.000000	
29.285996	2936.000000	
29.306503	2950.000000	
29.327011	3057.000000	
29.347519	3001.000000	
29.368027	3149.000000	
29.388534	3056.000000	
29.409042	3143.000000	
29.429550	3119.000000	
29.450057	3180.000000	
29.470565	3127.000000	
29.491073	3270.000000	
29.511580	3294.000000	
29.532088	3388.000000	
29.552596	3383.000000	
29.573104	3562.000000	
29.593611	3604.000000	
29.614119	3645.000000	
29.634627	3704.000000	
29.655134	3931.000000	
29.675642	3889.000000	
29.696150	4106.000000	
29.716657	4233.000000	
29.737165	4195.000000	
29.757673	4424.000000	
29.778181	4523.000000	
29.798688	4715.000000	
29.819196	4808.000000	
29.839704	4836.000000	
29.860211	5119.000000	
29.880719	5091.000000	
29.901227	5134.000000	
29.921734	5257.000000	
29.942242	5307.000000	
29.962750	5317.000000	
29.983258	5375.000000	
30.003765	5500.000000	
30.024273	5249.000000	
30.044781	5330.000000	
30.065288	5203.000000	
30.085796	5109.000000	
30.106304	4764.000000	
30.126811	4606.000000	
30.147319	4533.000000	
30.167827	4322.000000	
30.188335	4163.000000	
30.208842	4039.000000	
30.229350	4034.000000	
30.249858	3966.000000	
30.270365	3737.000000	
30.290873	3695.000000	
30.311381	3562.000000	
30.331888	3469.000000	
30.352396	3405.000000	
30.372904	3347.000000	
30.393412	3350.000000	
30.413919	3328.000000	
30.434427	3351.000000	
30.454935	3276.000000	
30.475442	3274.000000	
30.495950	3336.000000	
30.516458	3174.000000	
30.536965	3173.000000	
30.557473	3278.000000	
30.577981	3132.000000	
30.598489	3149.000000	
30.618996	3092.000000	
30.639504	2961.000000	
30.660012	2894.000000	
30.680519	2967.000000	
30.701027	2776.000000	
30.721535	2851.000000	
30.742042	2814.000000	
30.762550	2789.000000	
30.783058	2688.000000	
30.803566	2695.000000	
30.824073	2721.000000	
30.844581	2729.000000	
30.865089	2623.000000	
30.885596	2710.000000	
30.906104	2705.000000	
30.926612	2841.000000	
30.947120	2687.000000	
30.967627	2753.000000	
30.988135	2913.000000	
31.008643	3033.000000	
31.029150	2882.000000	
31.049658	2970.000000	
31.070166	3071.000000	
31.090673	3043.000000	
31.111181	3160.000000	
31.131689	3309.000000	
31.152197	3357.000000	
31.172704	3456.000000	
31.193212	3402.000000	
31.213720	3492.000000	
31.234227	3649.000000	
31.254735	3782.000000	
31.275243	3800.000000	
31.295750	3764.000000	
31.316258	3829.000000	
31.336766	3862.000000	
31.357274	3998.000000	
31.377781	3996.000000	
31.398289	4150.000000	
31.418797	4115.000000	
31.439304	4170.000000	
31.459812	4155.000000	
31.480320	4126.000000	
31.500827	3953.000000	
31.521335	3967.000000	
31.541843	3801.000000	
31.562351	3684.000000	
31.582858	3611.000000	
31.603366	3694.000000	
31.623874	3599.000000	
31.644381	3664.000000	
31.664889	3627.000000	
31.685397	3820.000000	
31.705904	3762.000000	
31.726412	3788.000000	
31.746920	3773.000000	
31.767428	3925.000000	
31.787935	4038.000000	
31.808443	3874.000000	
31.828951	4023.000000	
31.849458	4113.000000	
31.869966	4137.000000	
31.890474	4166.000000	
31.910981	4294.000000	
31.931489	4229.000000	
31.951997	4134.000000	
31.972505	4293.000000	
31.993012	4385.000000	
32.013520	4211.000000	
32.034028	4341.000000	
32.054535	4171.000000	
32.075043	3994.000000	
32.095551	4007.000000	
32.116058	4013.000000	
32.136566	3844.000000	
32.157074	3509.000000	
32.177582	3550.000000	
32.198089	3416.000000	
32.218597	3342.000000	
32.239105	3276.000000	
32.259612	3148.000000	
32.280120	3078.000000	
32.300628	2990.000000	
32.321135	3093.000000	
32.341643	3077.000000	
32.362151	2971.000000	
32.382659	2931.000000	
32.403166	2907.000000	
32.423674	2968.000000	
32.444182	2873.000000	
32.464689	2858.000000	
32.485197	2886.000000	
32.505705	2858.000000	
32.526213	2929.000000	
32.546720	2908.000000	
32.567228	2889.000000	
32.587736	2798.000000	
32.608243	2724.000000	
32.628751	2771.000000	
32.649259	2759.000000	
32.669766	2828.000000	
32.690274	2724.000000	
32.710782	2859.000000	
32.731290	2798.000000	
32.751797	2918.000000	
32.772305	2839.000000	
32.792813	2972.000000	
32.813320	2816.000000	
32.833828	2805.000000	
32.854336	2904.000000	
32.874843	2936.000000	
32.895351	3042.000000	
32.915859	3095.000000	
32.936367	3064.000000	
32.956874	3095.000000	
32.977382	2988.000000	
32.997890	3046.000000	
33.018397	3075.000000	
33.038905	3120.000000	
33.059413	3106.000000	
33.079920	3062.000000	
33.100428	3184.000000	
33.120936	3065.000000	
33.141444	2980.000000	
33.161951	3019.000000	
33.182459	3110.000000	
33.202967	3054.000000	
33.223474	3041.000000	
33.243982	3139.000000	
33.264490	2926.000000	
33.284997	3005.000000	
33.305505	3049.000000	
33.326013	3056.000000	
33.346521	2976.000000	
33.367028	3046.000000	
33.387536	3037.000000	
33.408044	3137.000000	
33.428551	3090.000000	
33.449059	3190.000000	
33.469567	3227.000000	
33.490074	3303.000000	
33.510582	3316.000000	
33.531090	3321.000000	
33.551598	3288.000000	
33.572105	3225.000000	
33.592613	3232.000000	
33.613121	3327.000000	
33.633628	3294.000000	
33.654136	3321.000000	
33.674644	3156.000000	
33.695151	3254.000000	
33.715659	3226.000000	
33.736167	3283.000000	
33.756675	3194.000000	
33.777182	3310.000000	
33.797690	3226.000000	
33.818198	3201.000000	
33.838705	3099.000000	
33.859213	2991.000000	
33.879721	2986.000000	
33.900228	2878.000000	
33.920736	2883.000000	
33.941244	2726.000000	
33.961752	2654.000000	
33.982259	2596.000000	
34.002767	2654.000000	
34.023275	2535.000000	
34.043782	2525.000000	
34.064290	2420.000000	
34.084798	2427.000000	
34.105306	2427.000000	
34.125813	2391.000000	
34.146321	2451.000000	
34.166829	2355.000000	
34.187336	2299.000000	
34.207844	2402.000000	
34.228352	2202.000000	
34.248859	2182.000000	
34.269367	2286.000000	
34.289875	2254.000000	
34.310383	2248.000000	
34.330890	2209.000000	
34.351398	2195.000000	
34.371906	2194.000000	
34.392413	2217.000000	
34.412921	2168.000000	
34.433429	2062.000000	
34.453936	2135.000000	
34.474444	2166.000000	
34.494952	2161.000000	
34.515460	2153.000000	
34.535967	2184.000000	
34.556475	2173.000000	
34.576983	2172.000000	
34.597490	2169.000000	
34.617998	2338.000000	
34.638506	2373.000000	
34.659013	2369.000000	
34.679521	2350.000000	
34.700029	2268.000000	
34.720537	2430.000000	
34.741044	2421.000000	
34.761552	2331.000000	
34.782060	2413.000000	
34.802567	2539.000000	
34.823075	2391.000000	
34.843583	2523.000000	
34.864090	2557.000000	
34.884598	2540.000000	
34.905106	2412.000000	
34.925614	2479.000000	
34.946121	2497.000000	
34.966629	2541.000000	
34.987137	2435.000000	
35.007644	2375.000000	
35.028152	2358.000000	
35.048660	2316.000000	
35.069167	2379.000000	
35.089675	2333.000000	
35.110183	2357.000000	
35.130691	2275.000000	
35.151198	2267.000000	
35.171706	2295.000000	
35.192214	2332.000000	
35.212721	2335.000000	
35.233229	2294.000000	
35.253737	2332.000000	
35.274244	2327.000000	
35.294752	2344.000000	
35.315260	2451.000000	
35.335768	2445.000000	
35.356275	2522.000000	
35.376783	2477.000000	
35.397291	2580.000000	
35.417798	2592.000000	
35.438306	2615.000000	
35.458814	2635.000000	
35.479321	2649.000000	
35.499829	2787.000000	
35.520337	2858.000000	
35.540845	2901.000000	
35.561352	2894.000000	
35.581860	2906.000000	
35.602368	2971.000000	
35.622875	3058.000000	
35.643383	3083.000000	
35.663891	2991.000000	
35.684399	3030.000000	
35.704906	2962.000000	
35.725414	2886.000000	
35.745922	2776.000000	
35.766429	2628.000000	
35.786937	2504.000000	
35.807445	2455.000000	
35.827952	2371.000000	
35.848460	2296.000000	
35.868968	2288.000000	
35.889476	2261.000000	
35.909983	2165.000000	
35.930491	2154.000000	
35.950999	2113.000000	
35.971506	2125.000000	
35.992014	2126.000000	
36.012522	2152.000000	
36.033029	2164.000000	
36.053537	2110.000000	
36.074045	2255.000000	
36.094553	2271.000000	
36.115060	2166.000000	
36.135568	2252.000000	
36.156076	2248.000000	
36.176583	2317.000000	
36.197091	2233.000000	
36.217599	2301.000000	
36.238106	2364.000000	
36.258614	2411.000000	
36.279122	2532.000000	
36.299630	2495.000000	
36.320137	2452.000000	
36.340645	2391.000000	
36.361153	2468.000000	
36.381660	2492.000000	
36.402168	2504.000000	
36.422676	2517.000000	
36.443183	2513.000000	
36.463691	2437.000000	
36.484199	2495.000000	
36.504707	2497.000000	
36.525214	2545.000000	
36.545722	2528.000000	
36.566230	2516.000000	
36.586737	2508.000000	
36.607245	2603.000000	
36.627753	2366.000000	
36.648260	2528.000000	
36.668768	2388.000000	
36.689276	2459.000000	
36.709784	2414.000000	
36.730291	2373.000000	
36.750799	2328.000000	
36.771307	2354.000000	
36.791814	2419.000000	
36.812322	2338.000000	
36.832830	2402.000000	
36.853337	2361.000000	
36.873845	2314.000000	
36.894353	2250.000000	
36.914861	2306.000000	
36.935368	2341.000000	
36.955876	2339.000000	
36.976384	2173.000000	
36.996891	2311.000000	
37.017399	2259.000000	
37.037907	2119.000000	
37.058414	2172.000000	
37.078922	2039.000000	
37.099430	2100.000000	
37.119938	2086.000000	
37.140445	2008.000000	
37.160953	2058.000000	
37.181461	2019.000000	
37.201968	2080.000000	
37.222476	2153.000000	
37.242984	2110.000000	
37.263492	2151.000000	
37.283999	2115.000000	
37.304507	2246.000000	
37.325015	2212.000000	
37.345522	2338.000000	
37.366030	2347.000000	
37.386538	2281.000000	
37.407045	2296.000000	
37.427553	2423.000000	
37.448061	2579.000000	
37.468569	2613.000000	
37.489076	2607.000000	
37.509584	2670.000000	
37.530092	2698.000000	
37.550599	2717.000000	
37.571107	2797.000000	
37.591615	2880.000000	
37.612122	2904.000000	
37.632630	2871.000000	
37.653138	2756.000000	
37.673646	2812.000000	
37.694153	2839.000000	
37.714661	2714.000000	
37.735169	2730.000000	
37.755676	2690.000000	
37.776184	2568.000000	
37.796692	2472.000000	
37.817199	2498.000000	
37.837707	2391.000000	
37.858215	2403.000000	
37.878723	2389.000000	
37.899230	2364.000000	
37.919738	2293.000000	
37.940246	2272.000000	
37.960753	2247.000000	
37.981261	2299.000000	
38.001769	2302.000000	
38.022276	2200.000000	
38.042784	2280.000000	
38.063292	2294.000000	
38.083800	2266.000000	
38.104307	2331.000000	
38.124815	2238.000000	
38.145323	2188.000000	
38.165830	2259.000000	
38.186338	2299.000000	
38.206846	2272.000000	
38.227353	2221.000000	
38.247861	2243.000000	
38.268369	2201.000000	
38.288877	2209.000000	
38.309384	2253.000000	
38.329892	2242.000000	
38.350400	2235.000000	
38.370907	2280.000000	
38.391415	2251.000000	
38.411923	2212.000000	
38.432430	2330.000000	
38.452938	2238.000000	
38.473446	2294.000000	
38.493954	2310.000000	
38.514461	2284.000000	
38.534969	2372.000000	
38.555477	2291.000000	
38.575984	2249.000000	
38.596492	2377.000000	
38.617000	2302.000000	
38.637507	2344.000000	
38.658015	2284.000000	
38.678523	2295.000000	
38.699031	2297.000000	
38.719538	2240.000000	
38.740046	2270.000000	
38.760554	2403.000000	
38.781061	2287.000000	
38.801569	2224.000000	
38.822077	2365.000000	
38.842585	2156.000000	
38.863092	2224.000000	
38.883600	2267.000000	
38.904108	2199.000000	
38.924615	2168.000000	
38.945123	2268.000000	
38.965631	2192.000000	
38.986138	2153.000000	
39.006646	2142.000000	
39.027154	2225.000000	
39.047662	2094.000000	
39.068169	2189.000000	
39.088677	2078.000000	
39.109185	2086.000000	
39.129692	2101.000000	
39.150200	2140.000000	
39.170708	1994.000000	
39.191215	2007.000000	
39.211723	2046.000000	
39.232231	1962.000000	
39.252739	1974.000000	
39.273246	1894.000000	
39.293754	1926.000000	
39.314262	1903.000000	
39.334769	1824.000000	
39.355277	1803.000000	
39.375785	1753.000000	
39.396292	1775.000000	
39.416800	1801.000000	
39.437308	1808.000000	
39.457816	1777.000000	
39.478323	1779.000000	
39.498831	1803.000000	
39.519339	1722.000000	
39.539846	1837.000000	
39.560354	1819.000000	
39.580862	1792.000000	
39.601369	1865.000000	
39.621877	1797.000000	
39.642385	1944.000000	
39.662893	1858.000000	
39.683400	1873.000000	
39.703908	1935.000000	
39.724416	1991.000000	
39.744923	1945.000000	
39.765431	2014.000000	
39.785939	1998.000000	
39.806446	2048.000000	
39.826954	2054.000000	
39.847462	2035.000000	
39.867970	1988.000000	
39.888477	2130.000000	
39.908985	2123.000000	
39.929493	2160.000000	
39.950000	2155.000000	
39.970508	2122.000000	
39.991016	2164.000000	
40.011523	2135.000000	
40.032031	2028.000000	
40.052539	2216.000000	
40.073047	2039.000000	
40.093554	2093.000000	
40.114062	2044.000000	
40.134570	2073.000000	
40.155077	2125.000000	
40.175585	2029.000000	
40.196093	1936.000000	
40.216600	1856.000000	
40.237108	1874.000000	
40.257616	1873.000000	
40.278124	1928.000000	
40.298631	1938.000000	
40.319139	1940.000000	
40.339647	1898.000000	
40.360154	1982.000000	
40.380662	1922.000000	
40.401170	1971.000000	
40.421678	1991.000000	
40.442185	2065.000000	
40.462693	2088.000000	
40.483201	2131.000000	
40.503708	2107.000000	
40.524216	2112.000000	
40.544724	2188.000000	
40.565231	2150.000000	
40.585739	2231.000000	
40.606247	2267.000000	
40.626755	2213.000000	
40.647262	2236.000000	
40.667770	2305.000000	
40.688278	2355.000000	
40.708785	2286.000000	
40.729293	2427.000000	
40.749801	2338.000000	
40.770308	2304.000000	
40.790816	2302.000000	
40.811324	2174.000000	
40.831832	2205.000000	
40.852339	2297.000000	
40.872847	2320.000000	
40.893355	2304.000000	
40.913862	2317.000000	
40.934370	2268.000000	
40.954878	2375.000000	
40.975385	2405.000000	
40.995893	2473.000000	
41.016401	2387.000000	
41.036909	2490.000000	
41.057416	2482.000000	
41.077924	2606.000000	
41.098432	2510.000000	
41.118939	2624.000000	
41.139447	2745.000000	
41.159955	2635.000000	
41.180462	2789.000000	
41.200970	2706.000000	
41.221478	2765.000000	
41.241986	2754.000000	
41.262493	2857.000000	
41.283001	2767.000000	
41.303509	2759.000000	
41.324016	2680.000000	
41.344524	2810.000000	
41.365032	2634.000000	
41.385539	2596.000000	
41.406047	2537.000000	
41.426555	2416.000000	
41.447063	2415.000000	
41.467570	2354.000000	
41.488078	2381.000000	
41.508586	2258.000000	
41.529093	2262.000000	
41.549601	2132.000000	
41.570109	2214.000000	
41.590616	2240.000000	
41.611124	2255.000000	
41.631632	2246.000000	
41.652140	2114.000000	
41.672647	2145.000000	
41.693155	2202.000000	
41.713663	2252.000000	
41.734170	2127.000000	
41.754678	2145.000000	
41.775186	1984.000000	
41.795693	2157.000000	
41.816201	2131.000000	
41.836709	2045.000000	
41.857217	2040.000000	
41.877724	2054.000000	
41.898232	1953.000000	
41.918740	1939.000000	
41.939247	1901.000000	
41.959755	1802.000000	
41.980263	1892.000000	
42.000771	1817.000000	
42.021278	1916.000000	
42.041786	1832.000000	
42.062294	1793.000000	
42.082801	1734.000000	
42.103309	1798.000000	
42.123817	1778.000000	
42.144324	1730.000000	
42.164832	1738.000000	
42.185340	1698.000000	
42.205848	1628.000000	
42.226355	1683.000000	
42.246863	1679.000000	
42.267371	1695.000000	
42.287878	1635.000000	
42.308386	1640.000000	
42.328894	1674.000000	
42.349401	1592.000000	
42.369909	1629.000000	
42.390417	1621.000000	
42.410925	1614.000000	
42.431432	1653.000000	
42.451940	1670.000000	
42.472448	1685.000000	
42.492955	1661.000000	
42.513463	1617.000000	
42.533971	1686.000000	
42.554478	1574.000000	
42.574986	1609.000000	
42.595494	1592.000000	
42.616002	1580.000000	
42.636509	1641.000000	
42.657017	1612.000000	
42.677525	1618.000000	
42.698032	1576.000000	
42.718540	1638.000000	
42.739048	1559.000000	
42.759555	1587.000000	
42.780063	1615.000000	
42.800571	1668.000000	
42.821079	1681.000000	
42.841586	1662.000000	
42.862094	1573.000000	
42.882602	1588.000000	
42.903109	1597.000000	
42.923617	1735.000000	
42.944125	1739.000000	
42.964632	1701.000000	
42.985140	1756.000000	
43.005648	1641.000000	
43.026156	1740.000000	
43.046663	1717.000000	
43.067171	1698.000000	
43.087679	1727.000000	
43.108186	1809.000000	
43.128694	1759.000000	
43.149202	1841.000000	
43.169709	1764.000000	
43.190217	1849.000000	
43.210725	1904.000000	
43.231233	1865.000000	
43.251740	1878.000000	
43.272248	1915.000000	
43.292756	1869.000000	
43.313263	1949.000000	
43.333771	1916.000000	
43.354279	1972.000000	
43.374786	2003.000000	
43.395294	1996.000000	
43.415802	1969.000000	
43.436310	1948.000000	
43.456817	1982.000000	
43.477325	1952.000000	
43.497833	1951.000000	
43.518340	1937.000000	
43.538848	1932.000000	
43.559356	1977.000000	
43.579864	1980.000000	
43.600371	1953.000000	
43.620879	1946.000000	
43.641387	1946.000000	
43.661894	1928.000000	
43.682402	1965.000000	
43.702910	1947.000000	
43.723417	1962.000000	
43.743925	1873.000000	
43.764433	1901.000000	
43.784941	1870.000000	
43.805448	1920.000000	
43.825956	1952.000000	
43.846464	1951.000000	
43.866971	2037.000000	
43.887479	1991.000000	
43.907987	1942.000000	
43.928494	2032.000000	
43.949002	2049.000000	
43.969510	2037.000000	
43.990018	2093.000000	
44.010525	2127.000000	
44.031033	2042.000000	
44.051541	2122.000000	
44.072048	2007.000000	
44.092556	2158.000000	
44.113064	2125.000000	
44.133571	2121.000000	
44.154079	2208.000000	
44.174587	2142.000000	
44.195095	2224.000000	
44.215602	2210.000000	
44.236110	2189.000000	
44.256618	2117.000000	
44.277125	2024.000000	
44.297633	2137.000000	
44.318141	2080.000000	
44.338648	2044.000000	
44.359156	2054.000000	
44.379664	2025.000000	
44.400172	2026.000000	
44.420679	2074.000000	
44.441187	2037.000000	
44.461695	2076.000000	
44.482202	1986.000000	
44.502710	1905.000000	
44.523218	1951.000000	
44.543725	1942.000000	
44.564233	1943.000000	
44.584741	2017.000000	
44.605249	2022.000000	
44.625756	1936.000000	
44.646264	1918.000000	
44.666772	1945.000000	
44.687279	1965.000000	
44.707787	1891.000000	
44.728295	1960.000000	
44.748802	2054.000000	
44.769310	1982.000000	
44.789818	1873.000000	
44.810326	1815.000000	
44.830833	1904.000000	
44.851341	1952.000000	
44.871849	1945.000000	
44.892356	1973.000000	
44.912864	1831.000000	
44.933372	1966.000000	
44.953879	1970.000000	
44.974387	1940.000000	
44.994895	1908.000000	
45.015403	1885.000000	
45.035910	2022.000000	
45.056418	1839.000000	
45.076926	1815.000000	
45.097433	1853.000000	
45.117941	1766.000000	
45.138449	1832.000000	
45.158957	1771.000000	
45.179464	1722.000000	
45.199972	1793.000000	
45.220480	1785.000000	
45.240987	1845.000000	
45.261495	1778.000000	
45.282003	1785.000000	
45.302510	1828.000000	
45.323018	1830.000000	
45.343526	1914.000000	
45.364034	1845.000000	
45.384541	1916.000000	
45.405049	1915.000000	
45.425557	1900.000000	
45.446064	1931.000000	
45.466572	2021.000000	
45.487080	2160.000000	
45.507587	2179.000000	
45.528095	2159.000000	
45.548603	2105.000000	
45.569111	2235.000000	
45.589618	2257.000000	
45.610126	2413.000000	
45.630634	2436.000000	
45.651141	2393.000000	
45.671649	2487.000000	
45.692157	2593.000000	
45.712664	2618.000000	
45.733172	2569.000000	
45.753680	2620.000000	
45.774188	2590.000000	
45.794695	2568.000000	
45.815203	2518.000000	
45.835711	2637.000000	
45.856218	2619.000000	
45.876726	2609.000000	
45.897234	2434.000000	
45.917741	2405.000000	
45.938249	2349.000000	
45.958757	2372.000000	
45.979265	2356.000000	
45.999772	2224.000000	
46.020280	2324.000000	
46.040788	2202.000000	
46.061295	2113.000000	
46.081803	2109.000000	
46.102311	1972.000000	
46.122818	2104.000000	
46.143326	1996.000000	
46.163834	2009.000000	
46.184342	1965.000000	
46.204849	1988.000000	
46.225357	2002.000000	
46.245865	1992.000000	
46.266372	1999.000000	
46.286880	1988.000000	
46.307388	1968.000000	
46.327895	1976.000000	
46.348403	1873.000000	
46.368911	2024.000000	
46.389419	1876.000000	
46.409926	1867.000000	
46.430434	1901.000000	
46.450942	1786.000000	
46.471449	1806.000000	
46.491957	1765.000000	
46.512465	1709.000000	
46.532972	1779.000000	
46.553480	1795.000000	
46.573988	1715.000000	
46.594496	1757.000000	
46.615003	1684.000000	
46.635511	1745.000000	
46.656019	1638.000000	
46.676526	1708.000000	
46.697034	1786.000000	
46.717542	1736.000000	
46.738050	1800.000000	
46.758557	1854.000000	
46.779065	1839.000000	
46.799573	1759.000000	
46.820080	1697.000000	
46.840588	1753.000000	
46.861096	1769.000000	
46.881603	1758.000000	
46.902111	1667.000000	
46.922619	1700.000000	
46.943127	1677.000000	
46.963634	1655.000000	
46.984142	1801.000000	
47.004650	1700.000000	
47.025157	1740.000000	
47.045665	1729.000000	
47.066173	1659.000000	
47.086680	1724.000000	
47.107188	1678.000000	
47.127696	1708.000000	
47.148204	1721.000000	
47.168711	1668.000000	
47.189219	1679.000000	
47.209727	1663.000000	
47.230234	1703.000000	
47.250742	1683.000000	
47.271250	1733.000000	
47.291757	1684.000000	
47.312265	1670.000000	
47.332773	1665.000000	
47.353281	1745.000000	
47.373788	1709.000000	
47.394296	1745.000000	
47.414804	1831.000000	
47.435311	1699.000000	
47.455819	1757.000000	
47.476327	1745.000000	
47.496834	1745.000000	
47.517342	1778.000000	
47.537850	1679.000000	
47.558358	1766.000000	
47.578865	1751.000000	
47.599373	1719.000000	
47.619881	1761.000000	
47.640388	1751.000000	
47.660896	1651.000000	
47.681404	1708.000000	
47.701911	1690.000000	
47.722419	1666.000000	
47.742927	1782.000000	
47.763435	1695.000000	
47.783942	1735.000000	
47.804450	1750.000000	
47.824958	1715.000000	
47.845465	1664.000000	
47.865973	1689.000000	
47.886481	1600.000000	
47.906988	1637.000000	
47.927496	1609.000000	
47.948004	1606.000000	
47.968512	1670.000000	
47.989019	1534.000000	
48.009527	1581.000000	
48.030035	1607.000000	
48.050542	1501.000000	
48.071050	1578.000000	
48.091558	1484.000000	
48.112065	1485.000000	
48.132573	1522.000000	
48.153081	1520.000000	
48.173589	1464.000000	
48.194096	1513.000000	
48.214604	1428.000000	
48.235112	1533.000000	
48.255619	1554.000000	
48.276127	1442.000000	
48.296635	1499.000000	
48.317143	1463.000000	
48.337650	1509.000000	
48.358158	1463.000000	
48.378666	1468.000000	
48.399173	1480.000000	
48.419681	1491.000000	
48.440189	1487.000000	
48.460696	1467.000000	
48.481204	1484.000000	
48.501712	1448.000000	
48.522220	1471.000000	
48.542727	1419.000000	
48.563235	1484.000000	
48.583743	1448.000000	
48.604250	1468.000000	
48.624758	1478.000000	
48.645266	1471.000000	
48.665773	1574.000000	
48.686281	1541.000000	
48.706789	1540.000000	
48.727297	1467.000000	
48.747804	1446.000000	
48.768312	1505.000000	
48.788820	1576.000000	
48.809327	1548.000000	
48.829835	1575.000000	
48.850343	1567.000000	
48.870850	1550.000000	
48.891358	1513.000000	
48.911866	1628.000000	
48.932374	1558.000000	
48.952881	1559.000000	
48.973389	1529.000000	
48.993897	1596.000000	
49.014404	1537.000000	
49.034912	1547.000000	
49.055420	1564.000000	
49.075927	1555.000000	
49.096435	1494.000000	
49.116943	1597.000000	
49.137451	1540.000000	
49.157958	1534.000000	
49.178466	1485.000000	
49.198974	1454.000000	
49.219481	1609.000000	
49.239989	1562.000000	
49.260497	1567.000000	
49.281004	1483.000000	
49.301512	1481.000000	
49.322020	1434.000000	
49.342528	1499.000000	
49.363035	1541.000000	
49.383543	1583.000000	
49.404051	1607.000000	
49.424558	1486.000000	
49.445066	1548.000000	
49.465574	1574.000000	
49.486081	1672.000000	
49.506589	1573.000000	
49.527097	1594.000000	
49.547605	1585.000000	
49.568112	1618.000000	
49.588620	1555.000000	
49.609128	1626.000000	
49.629635	1550.000000	
49.650143	1633.000000	
49.670651	1518.000000	
49.691158	1527.000000	
49.711666	1534.000000	
49.732174	1552.000000	
49.752682	1599.000000	
49.773189	1561.000000	
49.793697	1542.000000	
49.814205	1515.000000	
49.834712	1531.000000	
49.855220	1491.000000	
49.875728	1555.000000	
49.896236	1557.000000	
49.916743	1470.000000	
49.937251	1467.000000	
49.957759	1462.000000	
49.978266	1516.000000	
49.998774	1473.000000	
50.019282	1448.000000	
50.039789	1431.000000	
50.060297	1500.000000	
50.080805	1559.000000	
50.101313	1492.000000	
50.121820	1501.000000	
50.142328	1480.000000	
50.162836	1511.000000	
50.183343	1549.000000	
50.203851	1519.000000	
50.224359	1518.000000	
50.244866	1620.000000	
50.265374	1650.000000	
50.285882	1629.000000	
50.306390	1608.000000	
50.326897	1700.000000	
50.347405	1693.000000	
50.367913	1652.000000	
50.388420	1649.000000	
50.408928	1715.000000	
50.429436	1669.000000	
50.449943	1695.000000	
50.470451	1649.000000	
50.490959	1730.000000	
50.511467	1712.000000	
50.531974	1714.000000	
50.552482	1753.000000	
50.572990	1630.000000	
50.593497	1653.000000	
50.614005	1711.000000	
50.634513	1620.000000	
50.655020	1633.000000	
50.675528	1560.000000	
50.696036	1636.000000	
50.716544	1612.000000	
50.737051	1595.000000	
50.757559	1584.000000	
50.778067	1583.000000	
50.798574	1579.000000	
50.819082	1587.000000	
50.839590	1644.000000	
50.860097	1646.000000	
50.880605	1525.000000	
50.901113	1610.000000	
50.921621	1636.000000	
50.942128	1611.000000	
50.962636	1573.000000	
50.983144	1640.000000	
51.003651	1671.000000	
51.024159	1651.000000	
51.044667	1596.000000	
51.065174	1659.000000	
51.085682	1618.000000	
51.106190	1605.000000	
51.126698	1602.000000	
51.147205	1626.000000	
51.167713	1607.000000	
51.188221	1637.000000	
51.208728	1527.000000	
51.229236	1641.000000	
51.249744	1644.000000	
51.270251	1632.000000	
51.290759	1546.000000	
51.311267	1587.000000	
51.331775	1623.000000	
51.352282	1594.000000	
51.372790	1615.000000	
51.393298	1551.000000	
51.413805	1587.000000	
51.434313	1570.000000	
51.454821	1500.000000	
51.475329	1496.000000	
51.495836	1489.000000	
51.516344	1483.000000	
51.536852	1500.000000	
51.557359	1418.000000	
51.577867	1421.000000	
51.598375	1534.000000	
51.618882	1465.000000	
51.639390	1426.000000	
51.659898	1444.000000	
51.680406	1463.000000	
51.700913	1489.000000	
51.721421	1432.000000	
51.741929	1480.000000	
51.762436	1484.000000	
51.782944	1397.000000	
51.803452	1414.000000	
51.823959	1466.000000	
51.844467	1486.000000	
51.864975	1507.000000	
51.885483	1460.000000	
51.905990	1448.000000	
51.926498	1493.000000	
51.947006	1391.000000	
51.967513	1541.000000	
51.988021	1484.000000	
52.008529	1421.000000	
52.029036	1585.000000	
52.049544	1415.000000	
52.070052	1420.000000	
52.090560	1344.000000	
52.111067	1441.000000	
52.131575	1444.000000	
52.152083	1548.000000	
52.172590	1419.000000	
52.193098	1446.000000	
52.213606	1529.000000	
52.234113	1504.000000	
52.254621	1419.000000	
52.275129	1478.000000	
52.295637	1488.000000	
52.316144	1388.000000	
52.336652	1489.000000	
52.357160	1455.000000	
52.377667	1466.000000	
52.398175	1422.000000	
52.418683	1463.000000	
52.439190	1401.000000	
52.459698	1393.000000	
52.480206	1443.000000	
52.500714	1382.000000	
52.521221	1434.000000	
52.541729	1333.000000	
52.562237	1421.000000	
52.582744	1363.000000	
52.603252	1400.000000	
52.623760	1356.000000	
52.644267	1417.000000	
52.664775	1295.000000	
52.685283	1374.000000	
52.705791	1408.000000	
52.726298	1360.000000	
52.746806	1386.000000	
52.767314	1377.000000	
52.787821	1303.000000	
52.808329	1329.000000	
52.828837	1352.000000	
52.849344	1350.000000	
52.869852	1310.000000	
52.890360	1356.000000	
52.910868	1303.000000	
52.931375	1329.000000	
52.951883	1300.000000	
52.972391	1295.000000	
52.992898	1363.000000	
53.013406	1309.000000	
53.033914	1332.000000	
53.054422	1308.000000	
53.074929	1355.000000	
53.095437	1352.000000	
53.115945	1352.000000	
53.136452	1350.000000	
53.156960	1351.000000	
53.177468	1368.000000	
53.197975	1302.000000	
53.218483	1282.000000	
53.238991	1276.000000	
53.259499	1232.000000	
53.280006	1257.000000	
53.300514	1280.000000	
53.321022	1224.000000	
53.341529	1270.000000	
53.362037	1323.000000	
53.382545	1274.000000	
53.403052	1248.000000	
53.423560	1239.000000	
53.444068	1309.000000	
53.464576	1291.000000	
53.485083	1234.000000	
53.505591	1370.000000	
53.526099	1254.000000	
53.546606	1234.000000	
53.567114	1302.000000	
53.587622	1219.000000	
53.608129	1255.000000	
53.628637	1291.000000	
53.649145	1249.000000	
53.669653	1296.000000	
53.690160	1297.000000	
53.710668	1275.000000	
53.731176	1299.000000	
53.751683	1297.000000	
53.772191	1297.000000	
53.792699	1348.000000	
53.813206	1290.000000	
53.833714	1316.000000	
53.854222	1367.000000	
53.874730	1371.000000	
53.895237	1323.000000	
53.915745	1370.000000	
53.936253	1366.000000	
53.956760	1360.000000	
53.977268	1375.000000	
53.997776	1429.000000	
54.018283	1429.000000	
54.038791	1489.000000	
54.059299	1467.000000	
54.079807	1438.000000	
54.100314	1531.000000	
54.120822	1563.000000	
54.141330	1590.000000	
54.161837	1604.000000	
54.182345	1573.000000	
54.202853	1742.000000	
54.223360	1672.000000	
54.243868	1674.000000	
54.264376	1716.000000	
54.284884	1684.000000	
54.305391	1737.000000	
54.325899	1749.000000	
54.346407	1747.000000	
54.366914	1790.000000	
54.387422	1826.000000	
54.407930	1806.000000	
54.428437	1764.000000	
54.448945	1834.000000	
54.469453	1743.000000	
54.489961	1778.000000	
54.510468	1674.000000	
54.530976	1704.000000	
54.551484	1633.000000	
54.571991	1673.000000	
54.592499	1603.000000	
54.613007	1609.000000	
54.633515	1624.000000	
54.654022	1657.000000	
54.674530	1532.000000	
54.695038	1525.000000	
54.715545	1519.000000	
54.736053	1543.000000	
54.756561	1532.000000	
54.777068	1521.000000	
54.797576	1523.000000	
54.818084	1569.000000	
54.838592	1539.000000	
54.859099	1528.000000	
54.879607	1573.000000	
54.900115	1614.000000	
54.920622	1563.000000	
54.941130	1568.000000	
54.961638	1702.000000	
54.982145	1668.000000	
55.002653	1653.000000	
55.023161	1666.000000	
55.043669	1697.000000	
55.064176	1716.000000	
55.084684	1708.000000	
55.105192	1781.000000	
55.125699	1753.000000	
55.146207	1803.000000	
55.166715	1669.000000	
55.187222	1655.000000	
55.207730	1731.000000	
55.228238	1690.000000	
55.248746	1730.000000	
55.269253	1660.000000	
55.289761	1675.000000	
55.310269	1624.000000	
55.330776	1596.000000	
55.351284	1532.000000	
55.371792	1625.000000	
55.392299	1586.000000	
55.412807	1581.000000	
55.433315	1553.000000	
55.453823	1567.000000	
55.474330	1535.000000	
55.494838	1456.000000	
55.515346	1528.000000	
55.535853	1551.000000	
55.556361	1462.000000	
55.576869	1557.000000	
55.597376	1505.000000	
55.617884	1523.000000	
55.638392	1490.000000	
55.658900	1544.000000	
55.679407	1604.000000	
55.699915	1487.000000	
55.720423	1497.000000	
55.740930	1402.000000	
55.761438	1479.000000	
55.781946	1485.000000	
55.802453	1501.000000	
55.822961	1442.000000	
55.843469	1518.000000	
55.863977	1544.000000	
55.884484	1491.000000	
55.904992	1434.000000	
55.925500	1432.000000	
55.946007	1449.000000	
55.966515	1372.000000	
55.987023	1398.000000	
56.007530	1409.000000	
56.028038	1433.000000	
56.048546	1452.000000	
56.069054	1414.000000	
56.089561	1365.000000	
56.110069	1423.000000	
56.130577	1394.000000	
56.151084	1370.000000	
56.171592	1361.000000	
56.192100	1373.000000	
56.212608	1426.000000	
56.233115	1332.000000	
56.253623	1300.000000	
56.274131	1348.000000	
56.294638	1300.000000	
56.315146	1407.000000	
56.335654	1399.000000	
56.356161	1323.000000	
56.376669	1313.000000	
56.397177	1293.000000	
56.417685	1300.000000	
56.438192	1349.000000	
56.458700	1334.000000	
56.479208	1305.000000	
56.499715	1288.000000	
56.520223	1332.000000	
56.540731	1304.000000	
56.561238	1389.000000	
56.581746	1266.000000	
56.602254	1279.000000	
56.622762	1313.000000	
56.643269	1244.000000	
56.663777	1290.000000	
56.684285	1301.000000	
56.704792	1280.000000	
56.725300	1287.000000	
56.745808	1301.000000	
56.766315	1239.000000	
56.786823	1243.000000	
56.807331	1229.000000	
56.827839	1291.000000	
56.848346	1261.000000	
56.868854	1253.000000	
56.889362	1309.000000	
56.909869	1294.000000	
56.930377	1284.000000	
56.950885	1210.000000	
56.971392	1251.000000	
56.991900	1251.000000	
57.012408	1263.000000	
57.032916	1324.000000	
57.053423	1283.000000	
57.073931	1250.000000	
57.094439	1230.000000	
57.114946	1250.000000	
57.135454	1264.000000	
57.155962	1281.000000	
57.176469	1211.000000	
57.196977	1259.000000	
57.217485	1292.000000	
57.237993	1316.000000	
57.258500	1286.000000	
57.279008	1317.000000	
57.299516	1293.000000	
57.320023	1278.000000	
57.340531	1320.000000	
57.361039	1330.000000	
57.381546	1263.000000	
57.402054	1257.000000	
57.422562	1284.000000	
57.443070	1320.000000	
57.463577	1348.000000	
57.484085	1251.000000	
57.504593	1269.000000	
57.525100	1213.000000	
57.545608	1291.000000	
57.566116	1249.000000	
57.586623	1188.000000	
57.607131	1213.000000	
57.627639	1232.000000	
57.648147	1256.000000	
57.668654	1201.000000	
57.689162	1248.000000	
57.709670	1257.000000	
57.730177	1190.000000	
57.750685	1208.000000	
57.771193	1229.000000	
57.791701	1190.000000	
57.812208	1186.000000	
57.832716	1208.000000	
57.853224	1187.000000	
57.873731	1162.000000	
57.894239	1177.000000	
57.914747	1259.000000	
57.935254	1210.000000	
57.955762	1151.000000	
57.976270	1172.000000	
57.996778	1208.000000	
58.017285	1167.000000	
58.037793	1238.000000	
58.058301	1159.000000	
58.078808	1154.000000	
58.099316	1160.000000	
58.119824	1174.000000	
58.140331	1195.000000	
58.160839	1159.000000	
58.181347	1205.000000	
58.201855	1130.000000	
58.222362	1126.000000	
58.242870	1125.000000	
58.263378	1198.000000	
58.283885	1157.000000	
58.304393	1144.000000	
58.324901	1147.000000	
58.345408	1071.000000	
58.365916	1077.000000	
58.386424	1108.000000	
58.406932	1158.000000	
58.427439	1154.000000	
58.447947	1090.000000	
58.468455	1126.000000	
58.488962	1150.000000	
58.509470	1073.000000	
58.529978	1123.000000	
58.550485	1077.000000	
58.570993	1155.000000	
58.591501	1099.000000	
58.612009	1049.000000	
58.632516	1098.000000	
58.653024	1116.000000	
58.673532	1169.000000	
58.694039	1078.000000	
58.714547	1089.000000	
58.735055	1145.000000	
58.755562	1134.000000	
58.776070	1183.000000	
58.796578	1130.000000	
58.817086	1019.000000	
58.837593	1156.000000	
58.858101	1122.000000	
58.878609	1116.000000	
58.899116	1172.000000	
58.919624	1121.000000	
58.940132	1128.000000	
58.960639	1164.000000	
58.981147	1137.000000	
59.001655	1162.000000	
59.022163	1169.000000	
59.042670	1116.000000	
59.063178	1113.000000	
59.083686	1139.000000	
59.104193	1148.000000	
59.124701	1127.000000	
59.145209	1125.000000	
59.165716	1096.000000	
59.186224	1092.000000	
59.206732	1090.000000	
59.227240	1187.000000	
59.247747	1228.000000	
59.268255	1128.000000	
59.288763	1120.000000	
59.309270	1114.000000	
59.329778	1097.000000	
59.350286	1105.000000	
59.370794	1110.000000	
59.391301	1061.000000	
59.411809	1127.000000	
59.432317	1096.000000	
59.452824	1140.000000	
59.473332	1075.000000	
59.493840	1033.000000	
59.514347	1101.000000	
59.534855	1083.000000	
59.555363	1094.000000	
59.575871	1064.000000	
59.596378	1105.000000	
59.616886	1123.000000	
59.637394	1092.000000	
59.657901	1053.000000	
59.678409	1021.000000	
59.698917	1082.000000	
59.719424	1060.000000	
59.739932	1057.000000	
59.760440	1127.000000	
59.780948	1061.000000	
59.801455	1094.000000	
59.821963	1071.000000	
59.842471	1048.000000	
59.862978	1026.000000	
59.883486	1137.000000	
59.903994	1057.000000	
59.924501	1033.000000	
59.945009	1125.000000	
59.965517	1062.000000	
59.986025	1023.000000	
60.006532	1056.000000	
