;content of C:\2026\IF\Dr-IVAN\26-02-2026\FTN1-.raw - (Diffrac Plus V4 file)
_FILEVERSION = 3
_SAMPLE = FTN1-
_+SAMPLE
_USER = Lab Manager
_GONIOMETER_CODE = 21
_STAGE_CODE = 7
; Goniometer : D8 theta/theta, stage : Chi drive
_SAMPLE_CHANGER_CODE = 0
_ATTACHMENTS_CODE = 0
_GONIOMETER_RADIUS = 280
_SOLLER_SLITS = 2
_FIXED_DETSLIT = 6
_MONOCHROMATOR = 0
; Incident beam monochromator : None
_BETA_FILTER = N
_ANALYZER_CODE = 0
; Received beam analyzer : None
_DATEMEASURED = 25-Feb-2026 12:32:37
_RUNTIME = 1739.84
_WL_UNIT = A
_WL1 = 1.540600
_WL2 = 1.544390
_WL3 = 1.392220
_WLRATIO = 0.500000
_ANODE = Cu
_V4_INF_USER = Lab Manager
_V4_INF_SAMPLEID = FTN1-
_V4_INF_CREATOR = BrmlToV4Converter
_V4_INF_CREATOR_VERSION = 7.3.1.0

; Data for range 1
_DRIVE = COUPLED
_STEPTIME = 115.2
_STEPSIZE = 0.020508
_STEPMODE = C
_START = 4.000000
_THETA = 2.000000
_2THETA = 4.000000
_PHI = 175.210938
_DIVERGENCE = 0.379996
_DETECTORSLIT = out
_TIMESTARTED = 0
_ROTATION_SPEED = 15
_KV = 40
_MA = 35
_RANGE_WL = 1.541800
_3DPLANE = 0
_V4_PSD2THETA = 9999.000000
_V4_PSDCHANNEL1 = 0
_V4_PSDAPERTURE = 2.953109
_V4_PSDTYPE = 5
_V4_PSDFIXED = 0
_V4_COUNTERS_MASK = 1
_V4_DRIVES_MASK = 0
_V4_ENCODERS_MASK = 0
_2THETACOUNTS = 1
; 2THETA	Cnt2_D1	
4.000000	409.000000	
4.020508	459.000000	
4.041015	460.000000	
4.061523	443.000000	
4.082031	449.000000	
4.102539	437.000000	
4.123046	418.000000	
4.143554	399.000000	
4.164062	397.000000	
4.184569	439.000000	
4.205077	411.000000	
4.225585	396.000000	
4.246092	440.000000	
4.266600	443.000000	
4.287108	426.000000	
4.307616	463.000000	
4.328123	399.000000	
4.348631	390.000000	
4.369139	416.000000	
4.389646	427.000000	
4.410154	391.000000	
4.430662	403.000000	
4.451169	362.000000	
4.471677	438.000000	
4.492185	400.000000	
4.512693	383.000000	
4.533200	386.000000	
4.553708	399.000000	
4.574216	358.000000	
4.594723	401.000000	
4.615231	386.000000	
4.635739	372.000000	
4.656246	414.000000	
4.676754	342.000000	
4.697262	390.000000	
4.717770	397.000000	
4.738277	357.000000	
4.758785	353.000000	
4.779293	333.000000	
4.799800	355.000000	
4.820308	387.000000	
4.840816	362.000000	
4.861323	377.000000	
4.881831	346.000000	
4.902339	372.000000	
4.922847	407.000000	
4.943354	387.000000	
4.963862	387.000000	
4.984370	389.000000	
5.004877	363.000000	
5.025385	390.000000	
5.045893	350.000000	
5.066400	369.000000	
5.086908	382.000000	
5.107416	407.000000	
5.127924	376.000000	
5.148431	351.000000	
5.168939	365.000000	
5.189447	368.000000	
5.209954	360.000000	
5.230462	341.000000	
5.250970	361.000000	
5.271477	364.000000	
5.291985	331.000000	
5.312493	349.000000	
5.333001	335.000000	
5.353508	344.000000	
5.374016	332.000000	
5.394524	369.000000	
5.415031	331.000000	
5.435539	332.000000	
5.456047	360.000000	
5.476554	346.000000	
5.497062	383.000000	
5.517570	346.000000	
5.538078	357.000000	
5.558585	334.000000	
5.579093	337.000000	
5.599601	346.000000	
5.620108	376.000000	
5.640616	344.000000	
5.661124	333.000000	
5.681632	355.000000	
5.702139	359.000000	
5.722647	350.000000	
5.743155	331.000000	
5.763662	351.000000	
5.784170	341.000000	
5.804678	333.000000	
5.825185	346.000000	
5.845693	378.000000	
5.866201	342.000000	
5.886709	335.000000	
5.907216	331.000000	
5.927724	380.000000	
5.948232	359.000000	
5.968739	368.000000	
5.989247	355.000000	
6.009755	351.000000	
6.030262	324.000000	
6.050770	345.000000	
6.071278	364.000000	
6.091786	357.000000	
6.112293	357.000000	
6.132801	327.000000	
6.153309	360.000000	
6.173816	387.000000	
6.194324	352.000000	
6.214832	326.000000	
6.235339	334.000000	
6.255847	308.000000	
6.276355	348.000000	
6.296863	359.000000	
6.317370	383.000000	
6.337878	366.000000	
6.358386	364.000000	
6.378893	354.000000	
6.399401	369.000000	
6.419909	383.000000	
6.440416	400.000000	
6.460924	343.000000	
6.481432	362.000000	
6.501940	338.000000	
6.522447	333.000000	
6.542955	340.000000	
6.563463	366.000000	
6.583970	329.000000	
6.604478	338.000000	
6.624986	361.000000	
6.645493	332.000000	
6.666001	357.000000	
6.686509	335.000000	
6.707017	329.000000	
6.727524	330.000000	
6.748032	364.000000	
6.768540	358.000000	
6.789047	346.000000	
6.809555	360.000000	
6.830063	355.000000	
6.850570	348.000000	
6.871078	392.000000	
6.891586	338.000000	
6.912094	319.000000	
6.932601	383.000000	
6.953109	375.000000	
6.973617	333.000000	
6.994124	331.000000	
7.014632	306.000000	
7.035140	334.000000	
7.055647	342.000000	
7.076155	360.000000	
7.096663	375.000000	
7.117171	368.000000	
7.137678	358.000000	
7.158186	356.000000	
7.178694	382.000000	
7.199201	366.000000	
7.219709	351.000000	
7.240217	359.000000	
7.260725	382.000000	
7.281232	364.000000	
7.301740	349.000000	
7.322248	375.000000	
7.342755	385.000000	
7.363263	339.000000	
7.383771	375.000000	
7.404278	342.000000	
7.424786	342.000000	
7.445294	366.000000	
7.465802	332.000000	
7.486309	361.000000	
7.506817	346.000000	
7.527325	326.000000	
7.547832	342.000000	
7.568340	349.000000	
7.588848	350.000000	
7.609355	325.000000	
7.629863	331.000000	
7.650371	344.000000	
7.670879	367.000000	
7.691386	367.000000	
7.711894	392.000000	
7.732402	362.000000	
7.752909	331.000000	
7.773417	374.000000	
7.793925	373.000000	
7.814432	347.000000	
7.834940	321.000000	
7.855448	358.000000	
7.875956	362.000000	
7.896463	350.000000	
7.916971	341.000000	
7.937479	408.000000	
7.957986	400.000000	
7.978494	358.000000	
7.999002	384.000000	
8.019509	344.000000	
8.040017	366.000000	
8.060525	349.000000	
8.081033	352.000000	
8.101540	373.000000	
8.122048	391.000000	
8.142556	338.000000	
8.163063	385.000000	
8.183571	347.000000	
8.204079	380.000000	
8.224586	407.000000	
8.245094	399.000000	
8.265602	410.000000	
8.286110	378.000000	
8.306617	383.000000	
8.327125	346.000000	
8.347633	383.000000	
8.368140	363.000000	
8.388648	345.000000	
8.409156	376.000000	
8.429663	366.000000	
8.450171	350.000000	
8.470679	337.000000	
8.491187	362.000000	
8.511694	398.000000	
8.532202	368.000000	
8.552710	404.000000	
8.573217	366.000000	
8.593725	391.000000	
8.614233	393.000000	
8.634740	371.000000	
8.655248	382.000000	
8.675756	378.000000	
8.696264	399.000000	
8.716771	412.000000	
8.737279	386.000000	
8.757787	397.000000	
8.778294	384.000000	
8.798802	396.000000	
8.819310	390.000000	
8.839818	386.000000	
8.860325	367.000000	
8.880833	376.000000	
8.901341	380.000000	
8.921848	388.000000	
8.942356	385.000000	
8.962864	394.000000	
8.983371	406.000000	
9.003879	416.000000	
9.024387	393.000000	
9.044895	400.000000	
9.065402	399.000000	
9.085910	391.000000	
9.106418	418.000000	
9.126925	423.000000	
9.147433	395.000000	
9.167941	406.000000	
9.188448	363.000000	
9.208956	407.000000	
9.229464	442.000000	
9.249972	439.000000	
9.270479	400.000000	
9.290987	413.000000	
9.311495	419.000000	
9.332002	448.000000	
9.352510	414.000000	
9.373018	419.000000	
9.393525	397.000000	
9.414033	406.000000	
9.434541	411.000000	
9.455049	375.000000	
9.475556	392.000000	
9.496064	432.000000	
9.516572	433.000000	
9.537079	413.000000	
9.557587	452.000000	
9.578095	437.000000	
9.598602	406.000000	
9.619110	407.000000	
9.639618	443.000000	
9.660126	477.000000	
9.680633	467.000000	
9.701141	441.000000	
9.721649	432.000000	
9.742156	452.000000	
9.762664	460.000000	
9.783172	438.000000	
9.803679	452.000000	
9.824187	459.000000	
9.844695	443.000000	
9.865203	498.000000	
9.885710	469.000000	
9.906218	447.000000	
9.926726	429.000000	
9.947233	515.000000	
9.967741	488.000000	
9.988249	486.000000	
10.008756	455.000000	
10.029264	471.000000	
10.049772	496.000000	
10.070280	485.000000	
10.090787	512.000000	
10.111295	571.000000	
10.131803	492.000000	
10.152310	518.000000	
10.172818	552.000000	
10.193326	552.000000	
10.213833	594.000000	
10.234341	562.000000	
10.254849	591.000000	
10.275357	738.000000	
10.295864	705.000000	
10.316372	738.000000	
10.336880	807.000000	
10.357387	818.000000	
10.377895	800.000000	
10.398403	888.000000	
10.418911	941.000000	
10.439418	984.000000	
10.459926	1067.000000	
10.480434	1095.000000	
10.500941	1176.000000	
10.521449	1297.000000	
10.541957	1431.000000	
10.562464	1643.000000	
10.582972	1854.000000	
10.603480	2087.000000	
10.623988	2354.000000	
10.644495	2651.000000	
10.665003	2972.000000	
10.685511	3162.000000	
10.706018	3162.000000	
10.726526	2840.000000	
10.747034	2145.000000	
10.767541	1584.000000	
10.788049	1259.000000	
10.808557	1157.000000	
10.829065	1035.000000	
10.849572	1011.000000	
10.870080	975.000000	
10.890588	982.000000	
10.911095	894.000000	
10.931603	828.000000	
10.952111	818.000000	
10.972618	755.000000	
10.993126	784.000000	
11.013634	722.000000	
11.034142	765.000000	
11.054649	746.000000	
11.075157	813.000000	
11.095665	728.000000	
11.116172	748.000000	
11.136680	753.000000	
11.157188	765.000000	
11.177695	828.000000	
11.198203	804.000000	
11.218711	809.000000	
11.239219	883.000000	
11.259726	929.000000	
11.280234	1030.000000	
11.300742	1045.000000	
11.321249	1096.000000	
11.341757	1188.000000	
11.362265	1330.000000	
11.382772	1454.000000	
11.403280	1504.000000	
11.423788	1614.000000	
11.444296	1867.000000	
11.464803	1950.000000	
11.485311	2075.000000	
11.505819	2375.000000	
11.526326	2690.000000	
11.546834	3049.000000	
11.567342	3413.000000	
11.587849	4009.000000	
11.608357	4693.000000	
11.628865	5619.000000	
11.649373	6649.000000	
11.669880	7690.000000	
11.690388	8874.000000	
11.710896	9655.000000	
11.731403	9710.000000	
11.751911	8777.000000	
11.772419	8178.000000	
11.792926	7984.000000	
11.813434	8342.000000	
11.833942	9039.000000	
11.854450	9025.000000	
11.874957	8219.000000	
11.895465	6713.000000	
11.915973	5109.000000	
11.936480	3736.000000	
11.956988	2808.000000	
11.977496	2409.000000	
11.998004	2062.000000	
12.018511	1815.000000	
12.039019	1752.000000	
12.059527	1556.000000	
12.080034	1483.000000	
12.100542	1412.000000	
12.121050	1283.000000	
12.141557	1249.000000	
12.162065	1287.000000	
12.182573	1228.000000	
12.203081	1159.000000	
12.223588	1116.000000	
12.244096	1117.000000	
12.264604	1140.000000	
12.285111	1109.000000	
12.305619	1010.000000	
12.326127	1026.000000	
12.346634	1070.000000	
12.367142	1069.000000	
12.387650	1052.000000	
12.408158	1032.000000	
12.428665	1029.000000	
12.449173	1038.000000	
12.469681	1064.000000	
12.490188	1086.000000	
12.510696	1050.000000	
12.531204	1089.000000	
12.551711	1071.000000	
12.572219	1055.000000	
12.592727	1126.000000	
12.613235	1064.000000	
12.633742	1100.000000	
12.654250	1120.000000	
12.674758	1150.000000	
12.695265	1224.000000	
12.715773	1173.000000	
12.736281	1181.000000	
12.756788	1155.000000	
12.777296	1234.000000	
12.797804	1255.000000	
12.818312	1235.000000	
12.838819	1244.000000	
12.859327	1250.000000	
12.879835	1422.000000	
12.900342	1347.000000	
12.920850	1450.000000	
12.941358	1443.000000	
12.961865	1535.000000	
12.982373	1539.000000	
13.002881	1631.000000	
13.023389	1681.000000	
13.043896	1768.000000	
13.064404	1943.000000	
13.084912	2033.000000	
13.105419	2223.000000	
13.125927	2374.000000	
13.146435	2656.000000	
13.166942	2880.000000	
13.187450	3102.000000	
13.207958	3465.000000	
13.228466	3607.000000	
13.248973	4135.000000	
13.269481	4683.000000	
13.289989	4988.000000	
13.310496	5393.000000	
13.331004	5775.000000	
13.351512	6367.000000	
13.372019	6372.000000	
13.392527	6509.000000	
13.413035	6184.000000	
13.433543	5727.000000	
13.454050	4912.000000	
13.474558	4441.000000	
13.495066	4012.000000	
13.515573	3957.000000	
13.536081	3962.000000	
13.556589	3908.000000	
13.577097	4163.000000	
13.597604	4156.000000	
13.618112	4251.000000	
13.638620	3966.000000	
13.659127	3621.000000	
13.679635	2889.000000	
13.700143	2417.000000	
13.720650	1983.000000	
13.741158	1782.000000	
13.761666	1719.000000	
13.782174	1580.000000	
13.802681	1476.000000	
13.823189	1363.000000	
13.843697	1397.000000	
13.864204	1299.000000	
13.884712	1318.000000	
13.905220	1283.000000	
13.925727	1312.000000	
13.946235	1255.000000	
13.966743	1253.000000	
13.987251	1283.000000	
14.007758	1251.000000	
14.028266	1236.000000	
14.048774	1214.000000	
14.069281	1226.000000	
14.089789	1226.000000	
14.110297	1168.000000	
14.130804	1168.000000	
14.151312	1151.000000	
14.171820	1237.000000	
14.192328	1168.000000	
14.212835	1203.000000	
14.233343	1217.000000	
14.253851	1222.000000	
14.274358	1234.000000	
14.294866	1221.000000	
14.315374	1126.000000	
14.335881	1205.000000	
14.356389	1139.000000	
14.376897	1211.000000	
14.397405	1172.000000	
14.417912	1255.000000	
14.438420	1281.000000	
14.458928	1336.000000	
14.479435	1329.000000	
14.499943	1258.000000	
14.520451	1290.000000	
14.540958	1347.000000	
14.561466	1345.000000	
14.581974	1354.000000	
14.602482	1423.000000	
14.622989	1393.000000	
14.643497	1386.000000	
14.664005	1388.000000	
14.684512	1321.000000	
14.705020	1287.000000	
14.725528	1317.000000	
14.746035	1262.000000	
14.766543	1185.000000	
14.787051	1196.000000	
14.807559	1235.000000	
14.828066	1225.000000	
14.848574	1226.000000	
14.869082	1248.000000	
14.889589	1182.000000	
14.910097	1163.000000	
14.930605	1132.000000	
14.951112	1151.000000	
14.971620	1158.000000	
14.992128	1213.000000	
15.012636	1171.000000	
15.033143	1134.000000	
15.053651	1203.000000	
15.074159	1209.000000	
15.094666	1175.000000	
15.115174	1121.000000	
15.135682	1210.000000	
15.156190	1221.000000	
15.176697	1150.000000	
15.197205	1104.000000	
15.217713	1130.000000	
15.238220	1180.000000	
15.258728	1172.000000	
15.279236	1161.000000	
15.299743	1184.000000	
15.320251	1193.000000	
15.340759	1194.000000	
15.361267	1232.000000	
15.381774	1142.000000	
15.402282	1218.000000	
15.422790	1237.000000	
15.443297	1241.000000	
15.463805	1154.000000	
15.484313	1229.000000	
15.504820	1177.000000	
15.525328	1203.000000	
15.545836	1193.000000	
15.566344	1233.000000	
15.586851	1262.000000	
15.607359	1212.000000	
15.627867	1223.000000	
15.648374	1285.000000	
15.668882	1177.000000	
15.689390	1232.000000	
15.709897	1212.000000	
15.730405	1340.000000	
15.750913	1277.000000	
15.771421	1232.000000	
15.791928	1316.000000	
15.812436	1306.000000	
15.832944	1320.000000	
15.853451	1320.000000	
15.873959	1323.000000	
15.894467	1321.000000	
15.914974	1427.000000	
15.935482	1393.000000	
15.955990	1307.000000	
15.976498	1472.000000	
15.997005	1378.000000	
16.017513	1431.000000	
16.038021	1449.000000	
16.058528	1409.000000	
16.079036	1437.000000	
16.099544	1470.000000	
16.120051	1482.000000	
16.140559	1525.000000	
16.161067	1582.000000	
16.181575	1635.000000	
16.202082	1675.000000	
16.222590	1669.000000	
16.243098	1729.000000	
16.263605	1772.000000	
16.284113	1896.000000	
16.304621	2100.000000	
16.325128	2207.000000	
16.345636	2601.000000	
16.366144	2810.000000	
16.386652	3030.000000	
16.407159	3200.000000	
16.427667	3635.000000	
16.448175	3785.000000	
16.468682	4211.000000	
16.489190	4598.000000	
16.509698	4780.000000	
16.530205	5378.000000	
16.550713	5779.000000	
16.571221	6215.000000	
16.591729	6905.000000	
16.612236	7515.000000	
16.632744	8157.000000	
16.653252	9144.000000	
16.673759	9945.000000	
16.694267	10836.000000	
16.714775	11842.000000	
16.735283	12148.000000	
16.755790	11563.000000	
16.776298	9974.000000	
16.796806	7719.000000	
16.817313	5679.000000	
16.837821	4137.000000	
16.858329	3081.000000	
16.878836	2722.000000	
16.899344	2409.000000	
16.919852	2260.000000	
16.940360	2069.000000	
16.960867	2091.000000	
16.981375	1922.000000	
17.001883	1923.000000	
17.022390	1824.000000	
17.042898	1806.000000	
17.063406	1730.000000	
17.083913	1656.000000	
17.104421	1685.000000	
17.124929	1660.000000	
17.145437	1722.000000	
17.165944	1731.000000	
17.186452	1658.000000	
17.206960	1665.000000	
17.227467	1781.000000	
17.247975	1724.000000	
17.268483	1707.000000	
17.288990	1791.000000	
17.309498	1780.000000	
17.330006	1865.000000	
17.350514	1964.000000	
17.371021	1837.000000	
17.391529	1831.000000	
17.412037	1869.000000	
17.432544	1770.000000	
17.453052	1719.000000	
17.473560	1737.000000	
17.494067	1721.000000	
17.514575	1668.000000	
17.535083	1659.000000	
17.555591	1743.000000	
17.576098	1744.000000	
17.596606	1744.000000	
17.617114	1753.000000	
17.637621	1808.000000	
17.658129	1785.000000	
17.678637	1859.000000	
17.699144	1879.000000	
17.719652	1923.000000	
17.740160	2050.000000	
17.760668	2082.000000	
17.781175	2139.000000	
17.801683	2287.000000	
17.822191	2243.000000	
17.842698	2408.000000	
17.863206	2550.000000	
17.883714	2764.000000	
17.904221	2718.000000	
17.924729	2861.000000	
17.945237	2903.000000	
17.965745	3055.000000	
17.986252	3152.000000	
18.006760	3269.000000	
18.027268	3386.000000	
18.047775	3510.000000	
18.068283	3769.000000	
18.088791	3832.000000	
18.109298	3979.000000	
18.129806	4095.000000	
18.150314	4238.000000	
18.170822	4306.000000	
18.191329	4151.000000	
18.211837	3995.000000	
18.232345	3712.000000	
18.252852	3391.000000	
18.273360	3196.000000	
18.293868	2998.000000	
18.314376	2990.000000	
18.334883	2957.000000	
18.355391	2958.000000	
18.375899	2947.000000	
18.396406	3096.000000	
18.416914	3202.000000	
18.437422	3208.000000	
18.457929	3360.000000	
18.478437	3599.000000	
18.498945	3716.000000	
18.519453	3791.000000	
18.539960	3710.000000	
18.560468	3837.000000	
18.580976	3845.000000	
18.601483	3803.000000	
18.621991	4063.000000	
18.642499	4069.000000	
18.663006	4409.000000	
18.683514	4499.000000	
18.704022	4614.000000	
18.724530	4955.000000	
18.745037	5133.000000	
18.765545	5384.000000	
18.786053	5498.000000	
18.806560	5399.000000	
18.827068	5316.000000	
18.847576	5065.000000	
18.868083	4960.000000	
18.888591	4592.000000	
18.909099	4204.000000	
18.929607	3685.000000	
18.950114	3247.000000	
18.970622	2870.000000	
18.991130	2746.000000	
19.011637	2485.000000	
19.032145	2335.000000	
19.052653	2181.000000	
19.073160	2161.000000	
19.093668	2090.000000	
19.114176	2081.000000	
19.134684	1928.000000	
19.155191	1880.000000	
19.175699	1877.000000	
19.196207	1937.000000	
19.216714	1884.000000	
19.237222	1889.000000	
19.257730	1913.000000	
19.278237	1785.000000	
19.298745	1837.000000	
19.319253	1772.000000	
19.339761	1825.000000	
19.360268	1877.000000	
19.380776	1874.000000	
19.401284	1862.000000	
19.421791	1804.000000	
19.442299	1833.000000	
19.462807	1874.000000	
19.483314	1972.000000	
19.503822	1828.000000	
19.524330	1875.000000	
19.544838	2002.000000	
19.565345	1981.000000	
19.585853	2020.000000	
19.606361	2139.000000	
19.626868	2217.000000	
19.647376	2256.000000	
19.667884	2347.000000	
19.688391	2254.000000	
19.708899	2441.000000	
19.729407	2563.000000	
19.749915	2507.000000	
19.770422	2608.000000	
19.790930	2662.000000	
19.811438	2823.000000	
19.831945	3003.000000	
19.852453	2930.000000	
19.872961	3161.000000	
19.893469	3283.000000	
19.913976	3371.000000	
19.934484	3514.000000	
19.954992	3549.000000	
19.975499	3482.000000	
19.996007	3397.000000	
20.016515	3165.000000	
20.037022	3053.000000	
20.057530	2860.000000	
20.078038	2721.000000	
20.098546	2425.000000	
20.119053	2428.000000	
20.139561	2288.000000	
20.160069	2175.000000	
20.180576	2073.000000	
20.201084	2094.000000	
20.221592	2138.000000	
20.242099	1943.000000	
20.262607	2043.000000	
20.283115	1938.000000	
20.303623	1961.000000	
20.324130	2040.000000	
20.344638	1941.000000	
20.365146	1960.000000	
20.385653	1959.000000	
20.406161	1970.000000	
20.426669	1991.000000	
20.447176	1900.000000	
20.467684	1894.000000	
20.488192	1896.000000	
20.508700	1950.000000	
20.529207	1852.000000	
20.549715	1894.000000	
20.570223	1807.000000	
20.590730	1861.000000	
20.611238	1837.000000	
20.631746	1828.000000	
20.652253	1819.000000	
20.672761	1910.000000	
20.693269	1809.000000	
20.713777	1887.000000	
20.734284	1864.000000	
20.754792	1952.000000	
20.775300	1920.000000	
20.795807	1884.000000	
20.816315	1821.000000	
20.836823	1930.000000	
20.857330	1863.000000	
20.877838	1957.000000	
20.898346	1900.000000	
20.918854	1878.000000	
20.939361	1968.000000	
20.959869	1930.000000	
20.980377	1903.000000	
21.000884	1944.000000	
21.021392	2034.000000	
21.041900	1971.000000	
21.062407	2022.000000	
21.082915	2078.000000	
21.103423	1979.000000	
21.123931	2076.000000	
21.144438	2181.000000	
21.164946	2081.000000	
21.185454	2164.000000	
21.205961	2189.000000	
21.226469	2178.000000	
21.246977	2308.000000	
21.267484	2275.000000	
21.287992	2506.000000	
21.308500	2417.000000	
21.329008	2522.000000	
21.349515	2540.000000	
21.370023	2583.000000	
21.390531	2634.000000	
21.411038	2626.000000	
21.431546	2666.000000	
21.452054	2676.000000	
21.472562	2673.000000	
21.493069	2889.000000	
21.513577	2786.000000	
21.534085	2969.000000	
21.554592	2814.000000	
21.575100	2977.000000	
21.595608	3026.000000	
21.616115	3233.000000	
21.636623	3187.000000	
21.657131	3129.000000	
21.677639	3156.000000	
21.698146	3145.000000	
21.718654	3310.000000	
21.739162	3425.000000	
21.759669	3443.000000	
21.780177	3487.000000	
21.800685	3598.000000	
21.821192	3696.000000	
21.841700	3854.000000	
21.862208	3926.000000	
21.882716	3901.000000	
21.903223	3911.000000	
21.923731	3888.000000	
21.944239	3895.000000	
21.964746	3995.000000	
21.985254	3840.000000	
22.005762	3882.000000	
22.026269	4044.000000	
22.046777	4055.000000	
22.067285	4124.000000	
22.087793	4306.000000	
22.108300	4456.000000	
22.128808	4614.000000	
22.149316	4855.000000	
22.169823	4817.000000	
22.190331	4995.000000	
22.210839	5060.000000	
22.231346	5060.000000	
22.251854	4721.000000	
22.272362	4277.000000	
22.292870	4144.000000	
22.313377	3763.000000	
22.333885	3483.000000	
22.354393	3105.000000	
22.374900	2988.000000	
22.395408	2893.000000	
22.415916	2846.000000	
22.436423	2776.000000	
22.456931	2752.000000	
22.477439	2679.000000	
22.497947	2755.000000	
22.518454	2655.000000	
22.538962	2842.000000	
22.559470	2821.000000	
22.579977	2965.000000	
22.600485	3128.000000	
22.620993	3253.000000	
22.641500	3480.000000	
22.662008	3569.000000	
22.682516	3720.000000	
22.703024	3836.000000	
22.723531	3895.000000	
22.744039	4129.000000	
22.764547	4358.000000	
22.785054	4586.000000	
22.805562	4937.000000	
22.826070	5136.000000	
22.846577	5507.000000	
22.867085	5841.000000	
22.887593	6035.000000	
22.908101	6487.000000	
22.928608	6648.000000	
22.949116	7151.000000	
22.969624	7640.000000	
22.990131	7781.000000	
23.010639	8027.000000	
23.031147	8178.000000	
23.051655	8011.000000	
23.072162	7883.000000	
23.092670	7660.000000	
23.113178	7513.000000	
23.133685	7143.000000	
23.154193	7019.000000	
23.174701	7041.000000	
23.195208	7038.000000	
23.215716	6885.000000	
23.236224	6417.000000	
23.256732	6091.000000	
23.277239	5608.000000	
23.297747	5301.000000	
23.318255	4828.000000	
23.338762	4559.000000	
23.359270	4478.000000	
23.379778	4336.000000	
23.400285	4215.000000	
23.420793	4235.000000	
23.441301	4208.000000	
23.461809	4295.000000	
23.482316	4237.000000	
23.502824	4214.000000	
23.523332	4243.000000	
23.543839	4321.000000	
23.564347	4407.000000	
23.584855	4298.000000	
23.605362	4164.000000	
23.625870	3765.000000	
23.646378	3543.000000	
23.666886	3264.000000	
23.687393	3046.000000	
23.707901	2797.000000	
23.728409	2752.000000	
23.748916	2680.000000	
23.769424	2704.000000	
23.789932	2647.000000	
23.810439	2613.000000	
23.830947	2550.000000	
23.851455	2616.000000	
23.871963	2630.000000	
23.892470	2658.000000	
23.912978	2612.000000	
23.933486	2525.000000	
23.953993	2664.000000	
23.974501	2627.000000	
23.995009	2559.000000	
24.015516	2631.000000	
24.036024	2526.000000	
24.056532	2655.000000	
24.077040	2559.000000	
24.097547	2553.000000	
24.118055	2603.000000	
24.138563	2484.000000	
24.159070	2418.000000	
24.179578	2436.000000	
24.200086	2511.000000	
24.220593	2508.000000	
24.241101	2529.000000	
24.261609	2690.000000	
24.282117	2616.000000	
24.302624	2667.000000	
24.323132	2564.000000	
24.343640	2580.000000	
24.364147	2553.000000	
24.384655	2501.000000	
24.405163	2514.000000	
24.425670	2466.000000	
24.446178	2532.000000	
24.466686	2496.000000	
24.487194	2492.000000	
24.507701	2440.000000	
24.528209	2444.000000	
24.548717	2469.000000	
24.569224	2427.000000	
24.589732	2483.000000	
24.610240	2520.000000	
24.630748	2434.000000	
24.651255	2586.000000	
24.671763	2572.000000	
24.692271	2647.000000	
24.712778	2599.000000	
24.733286	2605.000000	
24.753794	2644.000000	
24.774301	2659.000000	
24.794809	2709.000000	
24.815317	2715.000000	
24.835825	2743.000000	
24.856332	2799.000000	
24.876840	2667.000000	
24.897348	2717.000000	
24.917855	2638.000000	
24.938363	2615.000000	
24.958871	2649.000000	
24.979378	2711.000000	
24.999886	2736.000000	
25.020394	2633.000000	
25.040902	2604.000000	
25.061409	2740.000000	
25.081917	2648.000000	
25.102425	2646.000000	
25.122932	2573.000000	
25.143440	2632.000000	
25.163948	2685.000000	
25.184455	2745.000000	
25.204963	2710.000000	
25.225471	2729.000000	
25.245979	2700.000000	
25.266486	2787.000000	
25.286994	2878.000000	
25.307502	2885.000000	
25.328009	2888.000000	
25.348517	2882.000000	
25.369025	2959.000000	
25.389532	3017.000000	
25.410040	3032.000000	
25.430548	3165.000000	
25.451056	3248.000000	
25.471563	3332.000000	
25.492071	3334.000000	
25.512579	3465.000000	
25.533086	3336.000000	
25.553594	3556.000000	
25.574102	3424.000000	
25.594609	3566.000000	
25.615117	3559.000000	
25.635625	3538.000000	
25.656133	3554.000000	
25.676640	3475.000000	
25.697148	3638.000000	
25.717656	3638.000000	
25.738163	3641.000000	
25.758671	3726.000000	
25.779179	3763.000000	
25.799686	3908.000000	
25.820194	3903.000000	
25.840702	3842.000000	
25.861210	3987.000000	
25.881717	4286.000000	
25.902225	4295.000000	
25.922733	4634.000000	
25.943240	4903.000000	
25.963748	5307.000000	
25.984256	5853.000000	
26.004763	6212.000000	
26.025271	6814.000000	
26.045779	7487.000000	
26.066287	8035.000000	
26.086794	8989.000000	
26.107302	9529.000000	
26.127810	10166.000000	
26.148317	10960.000000	
26.168825	11748.000000	
26.189333	12264.000000	
26.209841	13001.000000	
26.230348	13653.000000	
26.250856	14507.000000	
26.271364	15456.000000	
26.291871	16110.000000	
26.312379	17107.000000	
26.332887	18227.000000	
26.353394	19358.000000	
26.373902	20442.000000	
26.394410	20797.000000	
26.414918	21055.000000	
26.435425	20932.000000	
26.455933	19225.000000	
26.476441	17186.000000	
26.496948	14569.000000	
26.517456	12566.000000	
26.537964	10449.000000	
26.558471	8665.000000	
26.578979	7373.000000	
26.599487	6501.000000	
26.619995	5941.000000	
26.640502	5478.000000	
26.661010	4891.000000	
26.681518	4829.000000	
26.702025	4754.000000	
26.722533	4527.000000	
26.743041	4549.000000	
26.763548	4413.000000	
26.784056	4472.000000	
26.804564	4506.000000	
26.825072	4624.000000	
26.845579	4446.000000	
26.866087	4630.000000	
26.886595	4702.000000	
26.907102	4636.000000	
26.927610	4841.000000	
26.948118	5031.000000	
26.968625	5264.000000	
26.989133	5232.000000	
27.009641	5718.000000	
27.030149	6015.000000	
27.050656	6371.000000	
27.071164	6903.000000	
27.091672	7457.000000	
27.112179	8084.000000	
27.132687	8657.000000	
27.153195	9189.000000	
27.173702	9684.000000	
27.194210	10519.000000	
27.214718	11312.000000	
27.235226	11934.000000	
27.255733	12617.000000	
27.276241	13740.000000	
27.296749	14515.000000	
27.317256	15910.000000	
27.337764	17132.000000	
27.358272	18261.000000	
27.378779	19472.000000	
27.399287	20915.000000	
27.419795	22550.000000	
27.440303	23547.000000	
27.460810	24402.000000	
27.481318	24834.000000	
27.501826	24122.000000	
27.522333	23770.000000	
27.542841	22675.000000	
27.563349	21571.000000	
27.583856	20679.000000	
27.604364	20315.000000	
27.624872	19893.000000	
27.645380	19815.000000	
27.665887	20206.000000	
27.686395	20585.000000	
27.706903	20914.000000	
27.727410	21272.000000	
27.747918	21523.000000	
27.768426	21009.000000	
27.788934	19632.000000	
27.809441	17576.000000	
27.829949	15349.000000	
27.850457	13175.000000	
27.870964	11221.000000	
27.891472	9280.000000	
27.911980	7900.000000	
27.932487	6879.000000	
27.952995	6190.000000	
27.973503	5489.000000	
27.994011	4979.000000	
28.014518	4780.000000	
28.035026	4527.000000	
28.055534	4280.000000	
28.076041	4047.000000	
28.096549	3865.000000	
28.117057	3897.000000	
28.137564	3782.000000	
28.158072	3799.000000	
28.178580	3682.000000	
28.199088	3656.000000	
28.219595	3579.000000	
28.240103	3662.000000	
28.260611	3519.000000	
28.281118	3470.000000	
28.301626	3468.000000	
28.322134	3447.000000	
28.342641	3415.000000	
28.363149	3374.000000	
28.383657	3252.000000	
28.404165	3216.000000	
28.424672	2910.000000	
28.445180	2871.000000	
28.465688	2770.000000	
28.486195	2734.000000	
28.506703	2699.000000	
28.527211	2654.000000	
28.547718	2589.000000	
28.568226	2556.000000	
28.588734	2600.000000	
28.609242	2635.000000	
28.629749	2667.000000	
28.650257	2584.000000	
28.670765	2573.000000	
28.691272	2363.000000	
28.711780	2552.000000	
28.732288	2421.000000	
28.752795	2446.000000	
28.773303	2352.000000	
28.793811	2451.000000	
28.814319	2395.000000	
28.834826	2500.000000	
28.855334	2497.000000	
28.875842	2517.000000	
28.896349	2431.000000	
28.916857	2417.000000	
28.937365	2302.000000	
28.957872	2387.000000	
28.978380	2396.000000	
28.998888	2287.000000	
29.019396	2306.000000	
29.039903	2333.000000	
29.060411	2386.000000	
29.080919	2374.000000	
29.101426	2301.000000	
29.121934	2328.000000	
29.142442	2357.000000	
29.162949	2275.000000	
29.183457	2319.000000	
29.203965	2373.000000	
29.224473	2390.000000	
29.244980	2341.000000	
29.265488	2430.000000	
29.285996	2356.000000	
29.306503	2437.000000	
29.327011	2367.000000	
29.347519	2430.000000	
29.368027	2491.000000	
29.388534	2585.000000	
29.409042	2414.000000	
29.429550	2534.000000	
29.450057	2439.000000	
29.470565	2504.000000	
29.491073	2626.000000	
29.511580	2673.000000	
29.532088	2689.000000	
29.552596	2707.000000	
29.573104	2728.000000	
29.593611	2754.000000	
29.614119	2812.000000	
29.634627	2818.000000	
29.655134	2795.000000	
29.675642	2952.000000	
29.696150	2960.000000	
29.716657	2867.000000	
29.737165	2997.000000	
29.757673	3047.000000	
29.778181	3024.000000	
29.798688	3216.000000	
29.819196	3153.000000	
29.839704	3333.000000	
29.860211	3366.000000	
29.880719	3433.000000	
29.901227	3445.000000	
29.921734	3650.000000	
29.942242	3603.000000	
29.962750	3624.000000	
29.983258	3594.000000	
30.003765	3546.000000	
30.024273	3410.000000	
30.044781	3469.000000	
30.065288	3353.000000	
30.085796	3235.000000	
30.106304	3201.000000	
30.126811	3239.000000	
30.147319	3073.000000	
30.167827	2985.000000	
30.188335	2898.000000	
30.208842	2863.000000	
30.229350	2761.000000	
30.249858	2669.000000	
30.270365	2541.000000	
30.290873	2475.000000	
30.311381	2451.000000	
30.331888	2514.000000	
30.352396	2545.000000	
30.372904	2498.000000	
30.393412	2507.000000	
30.413919	2395.000000	
30.434427	2503.000000	
30.454935	2433.000000	
30.475442	2481.000000	
30.495950	2386.000000	
30.516458	2437.000000	
30.536965	2449.000000	
30.557473	2328.000000	
30.577981	2410.000000	
30.598489	2331.000000	
30.618996	2302.000000	
30.639504	2257.000000	
30.660012	2214.000000	
30.680519	2128.000000	
30.701027	2190.000000	
30.721535	2179.000000	
30.742042	2142.000000	
30.762550	2064.000000	
30.783058	1984.000000	
30.803566	2064.000000	
30.824073	2048.000000	
30.844581	2081.000000	
30.865089	2097.000000	
30.885596	2041.000000	
30.906104	2092.000000	
30.926612	2083.000000	
30.947120	2141.000000	
30.967627	2061.000000	
30.988135	2180.000000	
31.008643	2175.000000	
31.029150	2260.000000	
31.049658	2265.000000	
31.070166	2370.000000	
31.090673	2400.000000	
31.111181	2434.000000	
31.131689	2467.000000	
31.152197	2592.000000	
31.172704	2716.000000	
31.193212	2782.000000	
31.213720	2822.000000	
31.234227	2931.000000	
31.254735	3117.000000	
31.275243	3182.000000	
31.295750	3368.000000	
31.316258	3507.000000	
31.336766	3574.000000	
31.357274	3602.000000	
31.377781	3756.000000	
31.398289	3909.000000	
31.418797	3973.000000	
31.439304	4065.000000	
31.459812	4160.000000	
31.480320	4266.000000	
31.500827	4201.000000	
31.521335	4079.000000	
31.541843	4131.000000	
31.562351	4088.000000	
31.582858	4132.000000	
31.603366	4052.000000	
31.623874	4050.000000	
31.644381	4160.000000	
31.664889	4032.000000	
31.685397	3847.000000	
31.705904	3744.000000	
31.726412	3505.000000	
31.746920	3472.000000	
31.767428	3208.000000	
31.787935	3321.000000	
31.808443	3248.000000	
31.828951	3177.000000	
31.849458	3183.000000	
31.869966	3223.000000	
31.890474	3174.000000	
31.910981	3110.000000	
31.931489	3250.000000	
31.951997	3339.000000	
31.972505	3296.000000	
31.993012	3263.000000	
32.013520	3305.000000	
32.034028	3329.000000	
32.054535	3195.000000	
32.075043	3159.000000	
32.095551	3000.000000	
32.116058	2777.000000	
32.136566	2831.000000	
32.157074	2615.000000	
32.177582	2572.000000	
32.198089	2438.000000	
32.218597	2415.000000	
32.239105	2283.000000	
32.259612	2263.000000	
32.280120	2291.000000	
32.300628	2202.000000	
32.321135	2219.000000	
32.341643	2299.000000	
32.362151	2215.000000	
32.382659	2287.000000	
32.403166	2245.000000	
32.423674	2347.000000	
32.444182	2309.000000	
32.464689	2355.000000	
32.485197	2350.000000	
32.505705	2349.000000	
32.526213	2383.000000	
32.546720	2443.000000	
32.567228	2434.000000	
32.587736	2521.000000	
32.608243	2441.000000	
32.628751	2464.000000	
32.649259	2555.000000	
32.669766	2646.000000	
32.690274	2727.000000	
32.710782	2728.000000	
32.731290	2765.000000	
32.751797	2823.000000	
32.772305	2845.000000	
32.792813	2806.000000	
32.813320	2921.000000	
32.833828	2939.000000	
32.854336	2921.000000	
32.874843	2992.000000	
32.895351	2891.000000	
32.915859	2968.000000	
32.936367	2901.000000	
32.956874	2921.000000	
32.977382	3016.000000	
32.997890	2996.000000	
33.018397	3026.000000	
33.038905	3085.000000	
33.059413	3141.000000	
33.079920	3165.000000	
33.100428	3049.000000	
33.120936	3054.000000	
33.141444	3075.000000	
33.161951	2941.000000	
33.182459	2832.000000	
33.202967	2819.000000	
33.223474	2740.000000	
33.243982	2703.000000	
33.264490	2628.000000	
33.284997	2673.000000	
33.305505	2708.000000	
33.326013	2581.000000	
33.346521	2678.000000	
33.367028	2712.000000	
33.387536	2686.000000	
33.408044	2805.000000	
33.428551	2825.000000	
33.449059	2812.000000	
33.469567	2871.000000	
33.490074	3020.000000	
33.510582	2984.000000	
33.531090	3004.000000	
33.551598	2999.000000	
33.572105	3016.000000	
33.592613	3010.000000	
33.613121	3021.000000	
33.633628	2921.000000	
33.654136	3018.000000	
33.674644	2933.000000	
33.695151	2828.000000	
33.715659	2847.000000	
33.736167	2838.000000	
33.756675	2783.000000	
33.777182	2705.000000	
33.797690	2720.000000	
33.818198	2665.000000	
33.838705	2654.000000	
33.859213	2540.000000	
33.879721	2416.000000	
33.900228	2378.000000	
33.920736	2175.000000	
33.941244	2291.000000	
33.961752	2145.000000	
33.982259	2016.000000	
34.002767	1990.000000	
34.023275	1914.000000	
34.043782	1916.000000	
34.064290	1893.000000	
34.084798	1936.000000	
34.105306	1853.000000	
34.125813	1887.000000	
34.146321	1912.000000	
34.166829	1840.000000	
34.187336	1763.000000	
34.207844	1755.000000	
34.228352	1801.000000	
34.248859	1783.000000	
34.269367	1782.000000	
34.289875	1766.000000	
34.310383	1748.000000	
34.330890	1651.000000	
34.351398	1663.000000	
34.371906	1724.000000	
34.392413	1792.000000	
34.412921	1788.000000	
34.433429	1737.000000	
34.453936	1759.000000	
34.474444	1767.000000	
34.494952	1716.000000	
34.515460	1786.000000	
34.535967	1682.000000	
34.556475	1758.000000	
34.576983	1746.000000	
34.597490	1754.000000	
34.617998	1751.000000	
34.638506	1824.000000	
34.659013	1874.000000	
34.679521	1856.000000	
34.700029	1864.000000	
34.720537	1910.000000	
34.741044	1887.000000	
34.761552	1895.000000	
34.782060	1943.000000	
34.802567	1944.000000	
34.823075	2046.000000	
34.843583	1885.000000	
34.864090	1944.000000	
34.884598	1926.000000	
34.905106	2052.000000	
34.925614	1947.000000	
34.946121	2020.000000	
34.966629	1973.000000	
34.987137	2005.000000	
35.007644	1968.000000	
35.028152	2012.000000	
35.048660	2034.000000	
35.069167	1959.000000	
35.089675	2013.000000	
35.110183	1903.000000	
35.130691	2022.000000	
35.151198	1912.000000	
35.171706	1944.000000	
35.192214	1966.000000	
35.212721	1962.000000	
35.233229	1941.000000	
35.253737	1900.000000	
35.274244	1973.000000	
35.294752	1971.000000	
35.315260	1998.000000	
35.335768	2025.000000	
35.356275	2038.000000	
35.376783	2109.000000	
35.397291	2133.000000	
35.417798	2210.000000	
35.438306	2250.000000	
35.458814	2254.000000	
35.479321	2309.000000	
35.499829	2374.000000	
35.520337	2469.000000	
35.540845	2482.000000	
35.561352	2568.000000	
35.581860	2551.000000	
35.602368	2533.000000	
35.622875	2683.000000	
35.643383	2714.000000	
35.663891	2760.000000	
35.684399	2740.000000	
35.704906	2634.000000	
35.725414	2673.000000	
35.745922	2508.000000	
35.766429	2362.000000	
35.786937	2308.000000	
35.807445	2222.000000	
35.827952	1989.000000	
35.848460	2055.000000	
35.868968	2014.000000	
35.889476	1956.000000	
35.909983	1952.000000	
35.930491	1936.000000	
35.950999	1842.000000	
35.971506	1776.000000	
35.992014	1861.000000	
36.012522	1834.000000	
36.033029	1799.000000	
36.053537	1783.000000	
36.074045	1745.000000	
36.094553	1771.000000	
36.115060	1878.000000	
36.135568	1966.000000	
36.156076	1914.000000	
36.176583	1958.000000	
36.197091	1968.000000	
36.217599	1939.000000	
36.238106	2009.000000	
36.258614	2030.000000	
36.279122	2020.000000	
36.299630	2095.000000	
36.320137	2116.000000	
36.340645	2085.000000	
36.361153	2113.000000	
36.381660	2202.000000	
36.402168	2164.000000	
36.422676	2118.000000	
36.443183	2176.000000	
36.463691	2247.000000	
36.484199	2135.000000	
36.504707	2307.000000	
36.525214	2278.000000	
36.545722	2249.000000	
36.566230	2317.000000	
36.586737	2389.000000	
36.607245	2329.000000	
36.627753	2285.000000	
36.648260	2385.000000	
36.668768	2367.000000	
36.689276	2398.000000	
36.709784	2324.000000	
36.730291	2290.000000	
36.750799	2313.000000	
36.771307	2233.000000	
36.791814	2281.000000	
36.812322	2285.000000	
36.832830	2293.000000	
36.853337	2378.000000	
36.873845	2385.000000	
36.894353	2399.000000	
36.914861	2295.000000	
36.935368	2302.000000	
36.955876	2201.000000	
36.976384	2291.000000	
36.996891	2204.000000	
37.017399	2172.000000	
37.037907	2065.000000	
37.058414	2063.000000	
37.078922	1972.000000	
37.099430	2083.000000	
37.119938	2127.000000	
37.140445	2035.000000	
37.160953	2023.000000	
37.181461	2012.000000	
37.201968	2131.000000	
37.222476	2019.000000	
37.242984	2119.000000	
37.263492	2077.000000	
37.283999	2162.000000	
37.304507	2216.000000	
37.325015	2287.000000	
37.345522	2355.000000	
37.366030	2193.000000	
37.386538	2386.000000	
37.407045	2383.000000	
37.427553	2333.000000	
37.448061	2237.000000	
37.468569	2368.000000	
37.489076	2414.000000	
37.509584	2370.000000	
37.530092	2358.000000	
37.550599	2384.000000	
37.571107	2484.000000	
37.591615	2418.000000	
37.612122	2489.000000	
37.632630	2411.000000	
37.653138	2428.000000	
37.673646	2406.000000	
37.694153	2388.000000	
37.714661	2349.000000	
37.735169	2244.000000	
37.755676	2222.000000	
37.776184	2193.000000	
37.796692	2203.000000	
37.817199	2119.000000	
37.837707	2128.000000	
37.858215	2021.000000	
37.878723	2053.000000	
37.899230	2065.000000	
37.919738	1992.000000	
37.940246	1959.000000	
37.960753	1960.000000	
37.981261	2036.000000	
38.001769	1938.000000	
38.022276	1959.000000	
38.042784	2147.000000	
38.063292	2026.000000	
38.083800	2056.000000	
38.104307	2122.000000	
38.124815	2066.000000	
38.145323	2204.000000	
38.165830	2178.000000	
38.186338	2132.000000	
38.206846	2105.000000	
38.227353	2199.000000	
38.247861	2137.000000	
38.268369	2158.000000	
38.288877	2100.000000	
38.309384	2049.000000	
38.329892	2095.000000	
38.350400	2080.000000	
38.370907	2063.000000	
38.391415	2138.000000	
38.411923	2090.000000	
38.432430	2047.000000	
38.452938	2036.000000	
38.473446	2100.000000	
38.493954	2031.000000	
38.514461	1966.000000	
38.534969	1854.000000	
38.555477	1964.000000	
38.575984	1905.000000	
38.596492	1967.000000	
38.617000	1892.000000	
38.637507	1871.000000	
38.658015	1933.000000	
38.678523	2002.000000	
38.699031	1911.000000	
38.719538	1928.000000	
38.740046	1969.000000	
38.760554	1911.000000	
38.781061	1907.000000	
38.801569	1885.000000	
38.822077	1919.000000	
38.842585	1893.000000	
38.863092	1925.000000	
38.883600	1918.000000	
38.904108	1872.000000	
38.924615	1954.000000	
38.945123	1860.000000	
38.965631	1831.000000	
38.986138	1850.000000	
39.006646	1821.000000	
39.027154	1894.000000	
39.047662	1908.000000	
39.068169	1913.000000	
39.088677	1869.000000	
39.109185	1986.000000	
39.129692	1921.000000	
39.150200	1859.000000	
39.170708	1925.000000	
39.191215	1859.000000	
39.211723	1906.000000	
39.232231	1972.000000	
39.252739	1943.000000	
39.273246	1957.000000	
39.293754	1932.000000	
39.314262	1929.000000	
39.334769	1858.000000	
39.355277	1934.000000	
39.375785	1984.000000	
39.396292	1912.000000	
39.416800	1981.000000	
39.437308	1937.000000	
39.457816	2007.000000	
39.478323	1985.000000	
39.498831	1903.000000	
39.519339	1908.000000	
39.539846	1882.000000	
39.560354	1860.000000	
39.580862	1777.000000	
39.601369	1791.000000	
39.621877	1782.000000	
39.642385	1857.000000	
39.662893	1794.000000	
39.683400	1734.000000	
39.703908	1765.000000	
39.724416	1699.000000	
39.744923	1742.000000	
39.765431	1793.000000	
39.785939	1772.000000	
39.806446	1764.000000	
39.826954	1832.000000	
39.847462	1779.000000	
39.867970	1889.000000	
39.888477	1936.000000	
39.908985	1943.000000	
39.929493	1867.000000	
39.950000	1919.000000	
39.970508	1963.000000	
39.991016	2016.000000	
40.011523	2045.000000	
40.032031	1976.000000	
40.052539	1939.000000	
40.073047	2043.000000	
40.093554	1976.000000	
40.114062	1895.000000	
40.134570	2019.000000	
40.155077	1942.000000	
40.175585	1927.000000	
40.196093	1970.000000	
40.216600	2053.000000	
40.237108	2017.000000	
40.257616	1962.000000	
40.278124	1997.000000	
40.298631	2054.000000	
40.319139	2141.000000	
40.339647	2111.000000	
40.360154	2146.000000	
40.380662	2144.000000	
40.401170	2137.000000	
40.421678	2180.000000	
40.442185	2135.000000	
40.462693	2217.000000	
40.483201	2170.000000	
40.503708	2110.000000	
40.524216	2255.000000	
40.544724	2128.000000	
40.565231	2096.000000	
40.585739	2117.000000	
40.606247	2070.000000	
40.626755	2095.000000	
40.647262	2138.000000	
40.667770	2118.000000	
40.688278	1993.000000	
40.708785	2009.000000	
40.729293	2051.000000	
40.749801	2114.000000	
40.770308	2035.000000	
40.790816	2054.000000	
40.811324	2078.000000	
40.831832	2060.000000	
40.852339	2133.000000	
40.872847	2013.000000	
40.893355	2129.000000	
40.913862	2102.000000	
40.934370	2104.000000	
40.954878	2150.000000	
40.975385	2243.000000	
40.995893	2184.000000	
41.016401	2252.000000	
41.036909	2294.000000	
41.057416	2367.000000	
41.077924	2242.000000	
41.098432	2230.000000	
41.118939	2297.000000	
41.139447	2319.000000	
41.159955	2441.000000	
41.180462	2295.000000	
41.200970	2307.000000	
41.221478	2412.000000	
41.241986	2395.000000	
41.262493	2339.000000	
41.283001	2413.000000	
41.303509	2446.000000	
41.324016	2501.000000	
41.344524	2431.000000	
41.365032	2327.000000	
41.385539	2293.000000	
41.406047	2198.000000	
41.426555	2174.000000	
41.447063	2166.000000	
41.467570	2034.000000	
41.488078	2032.000000	
41.508586	1976.000000	
41.529093	1989.000000	
41.549601	1944.000000	
41.570109	1876.000000	
41.590616	1873.000000	
41.611124	1868.000000	
41.631632	1896.000000	
41.652140	1953.000000	
41.672647	1858.000000	
41.693155	1903.000000	
41.713663	1874.000000	
41.734170	1866.000000	
41.754678	1847.000000	
41.775186	1753.000000	
41.795693	1862.000000	
41.816201	1808.000000	
41.836709	1703.000000	
41.857217	1681.000000	
41.877724	1724.000000	
41.898232	1710.000000	
41.918740	1719.000000	
41.939247	1603.000000	
41.959755	1660.000000	
41.980263	1707.000000	
42.000771	1641.000000	
42.021278	1537.000000	
42.041786	1489.000000	
42.062294	1523.000000	
42.082801	1495.000000	
42.103309	1501.000000	
42.123817	1429.000000	
42.144324	1460.000000	
42.164832	1466.000000	
42.185340	1434.000000	
42.205848	1505.000000	
42.226355	1351.000000	
42.246863	1355.000000	
42.267371	1423.000000	
42.287878	1402.000000	
42.308386	1359.000000	
42.328894	1418.000000	
42.349401	1397.000000	
42.369909	1405.000000	
42.390417	1449.000000	
42.410925	1348.000000	
42.431432	1422.000000	
42.451940	1349.000000	
42.472448	1408.000000	
42.492955	1376.000000	
42.513463	1461.000000	
42.533971	1401.000000	
42.554478	1376.000000	
42.574986	1368.000000	
42.595494	1418.000000	
42.616002	1444.000000	
42.636509	1484.000000	
42.657017	1469.000000	
42.677525	1390.000000	
42.698032	1382.000000	
42.718540	1509.000000	
42.739048	1481.000000	
42.759555	1455.000000	
42.780063	1483.000000	
42.800571	1405.000000	
42.821079	1523.000000	
42.841586	1425.000000	
42.862094	1455.000000	
42.882602	1526.000000	
42.903109	1492.000000	
42.923617	1530.000000	
42.944125	1519.000000	
42.964632	1551.000000	
42.985140	1535.000000	
43.005648	1539.000000	
43.026156	1521.000000	
43.046663	1500.000000	
43.067171	1466.000000	
43.087679	1497.000000	
43.108186	1520.000000	
43.128694	1490.000000	
43.149202	1540.000000	
43.169709	1630.000000	
43.190217	1603.000000	
43.210725	1550.000000	
43.231233	1540.000000	
43.251740	1583.000000	
43.272248	1572.000000	
43.292756	1612.000000	
43.313263	1661.000000	
43.333771	1626.000000	
43.354279	1687.000000	
43.374786	1672.000000	
43.395294	1757.000000	
43.415802	1658.000000	
43.436310	1660.000000	
43.456817	1692.000000	
43.477325	1607.000000	
43.497833	1627.000000	
43.518340	1672.000000	
43.538848	1720.000000	
43.559356	1667.000000	
43.579864	1657.000000	
43.600371	1621.000000	
43.620879	1685.000000	
43.641387	1614.000000	
43.661894	1598.000000	
43.682402	1623.000000	
43.702910	1647.000000	
43.723417	1600.000000	
43.743925	1642.000000	
43.764433	1612.000000	
43.784941	1676.000000	
43.805448	1535.000000	
43.825956	1564.000000	
43.846464	1617.000000	
43.866971	1679.000000	
43.887479	1720.000000	
43.907987	1719.000000	
43.928494	1651.000000	
43.949002	1728.000000	
43.969510	1649.000000	
43.990018	1656.000000	
44.010525	1721.000000	
44.031033	1799.000000	
44.051541	1789.000000	
44.072048	1713.000000	
44.092556	1811.000000	
44.113064	1844.000000	
44.133571	1820.000000	
44.154079	1770.000000	
44.174587	1898.000000	
44.195095	1875.000000	
44.215602	1859.000000	
44.236110	1866.000000	
44.256618	1852.000000	
44.277125	1800.000000	
44.297633	1849.000000	
44.318141	1768.000000	
44.338648	1721.000000	
44.359156	1829.000000	
44.379664	1678.000000	
44.400172	1764.000000	
44.420679	1661.000000	
44.441187	1697.000000	
44.461695	1698.000000	
44.482202	1656.000000	
44.502710	1626.000000	
44.523218	1600.000000	
44.543725	1699.000000	
44.564233	1678.000000	
44.584741	1545.000000	
44.605249	1630.000000	
44.625756	1575.000000	
44.646264	1639.000000	
44.666772	1575.000000	
44.687279	1654.000000	
44.707787	1677.000000	
44.728295	1598.000000	
44.748802	1591.000000	
44.769310	1548.000000	
44.789818	1557.000000	
44.810326	1581.000000	
44.830833	1542.000000	
44.851341	1660.000000	
44.871849	1614.000000	
44.892356	1672.000000	
44.912864	1684.000000	
44.933372	1685.000000	
44.953879	1682.000000	
44.974387	1751.000000	
44.994895	1723.000000	
45.015403	1754.000000	
45.035910	1803.000000	
45.056418	1797.000000	
45.076926	1807.000000	
45.097433	1851.000000	
45.117941	1768.000000	
45.138449	1888.000000	
45.158957	1879.000000	
45.179464	1913.000000	
45.199972	1925.000000	
45.220480	1934.000000	
45.240987	1945.000000	
45.261495	1955.000000	
45.282003	2013.000000	
45.302510	2118.000000	
45.323018	2131.000000	
45.343526	2230.000000	
45.364034	2394.000000	
45.384541	2169.000000	
45.405049	2043.000000	
45.425557	2130.000000	
45.446064	2158.000000	
45.466572	1989.000000	
45.487080	2100.000000	
45.507587	2000.000000	
45.528095	1997.000000	
45.548603	1910.000000	
45.569111	1940.000000	
45.589618	1953.000000	
45.610126	2071.000000	
45.630634	2000.000000	
45.651141	2073.000000	
45.671649	2105.000000	
45.692157	2107.000000	
45.712664	2175.000000	
45.733172	2238.000000	
45.753680	2234.000000	
45.774188	2195.000000	
45.794695	2208.000000	
45.815203	2163.000000	
45.835711	2200.000000	
45.856218	2071.000000	
45.876726	2182.000000	
45.897234	2173.000000	
45.917741	2136.000000	
45.938249	2070.000000	
45.958757	2006.000000	
45.979265	1935.000000	
45.999772	1818.000000	
46.020280	1927.000000	
46.040788	1838.000000	
46.061295	1818.000000	
46.081803	1836.000000	
46.102311	1758.000000	
46.122818	1810.000000	
46.143326	1693.000000	
46.163834	1739.000000	
46.184342	1681.000000	
46.204849	1627.000000	
46.225357	1692.000000	
46.245865	1682.000000	
46.266372	1720.000000	
46.286880	1687.000000	
46.307388	1774.000000	
46.327895	1719.000000	
46.348403	1674.000000	
46.368911	1627.000000	
46.389419	1633.000000	
46.409926	1596.000000	
46.430434	1511.000000	
46.450942	1581.000000	
46.471449	1530.000000	
46.491957	1521.000000	
46.512465	1499.000000	
46.532972	1518.000000	
46.553480	1489.000000	
46.573988	1558.000000	
46.594496	1495.000000	
46.615003	1521.000000	
46.635511	1552.000000	
46.656019	1463.000000	
46.676526	1459.000000	
46.697034	1527.000000	
46.717542	1518.000000	
46.738050	1501.000000	
46.758557	1551.000000	
46.779065	1517.000000	
46.799573	1518.000000	
46.820080	1550.000000	
46.840588	1600.000000	
46.861096	1474.000000	
46.881603	1510.000000	
46.902111	1511.000000	
46.922619	1477.000000	
46.943127	1560.000000	
46.963634	1493.000000	
46.984142	1572.000000	
47.004650	1529.000000	
47.025157	1516.000000	
47.045665	1480.000000	
47.066173	1527.000000	
47.086680	1523.000000	
47.107188	1438.000000	
47.127696	1513.000000	
47.148204	1505.000000	
47.168711	1486.000000	
47.189219	1420.000000	
47.209727	1424.000000	
47.230234	1501.000000	
47.250742	1500.000000	
47.271250	1503.000000	
47.291757	1476.000000	
47.312265	1482.000000	
47.332773	1510.000000	
47.353281	1439.000000	
47.373788	1404.000000	
47.394296	1462.000000	
47.414804	1494.000000	
47.435311	1412.000000	
47.455819	1501.000000	
47.476327	1486.000000	
47.496834	1478.000000	
47.517342	1491.000000	
47.537850	1390.000000	
47.558358	1497.000000	
47.578865	1481.000000	
47.599373	1548.000000	
47.619881	1516.000000	
47.640388	1424.000000	
47.660896	1538.000000	
47.681404	1460.000000	
47.701911	1489.000000	
47.722419	1453.000000	
47.742927	1468.000000	
47.763435	1432.000000	
47.783942	1496.000000	
47.804450	1441.000000	
47.824958	1403.000000	
47.845465	1435.000000	
47.865973	1439.000000	
47.886481	1421.000000	
47.906988	1396.000000	
47.927496	1315.000000	
47.948004	1331.000000	
47.968512	1346.000000	
47.989019	1305.000000	
48.009527	1398.000000	
48.030035	1352.000000	
48.050542	1362.000000	
48.071050	1311.000000	
48.091558	1304.000000	
48.112065	1324.000000	
48.132573	1229.000000	
48.153081	1318.000000	
48.173589	1259.000000	
48.194096	1294.000000	
48.214604	1375.000000	
48.235112	1308.000000	
48.255619	1350.000000	
48.276127	1234.000000	
48.296635	1268.000000	
48.317143	1336.000000	
48.337650	1233.000000	
48.358158	1381.000000	
48.378666	1342.000000	
48.399173	1411.000000	
48.419681	1344.000000	
48.440189	1366.000000	
48.460696	1338.000000	
48.481204	1328.000000	
48.501712	1413.000000	
48.522220	1402.000000	
48.542727	1418.000000	
48.563235	1422.000000	
48.583743	1445.000000	
48.604250	1477.000000	
48.624758	1483.000000	
48.645266	1449.000000	
48.665773	1450.000000	
48.686281	1402.000000	
48.706789	1498.000000	
48.727297	1506.000000	
48.747804	1502.000000	
48.768312	1451.000000	
48.788820	1566.000000	
48.809327	1521.000000	
48.829835	1455.000000	
48.850343	1522.000000	
48.870850	1480.000000	
48.891358	1508.000000	
48.911866	1460.000000	
48.932374	1517.000000	
48.952881	1487.000000	
48.973389	1507.000000	
48.993897	1593.000000	
49.014404	1467.000000	
49.034912	1435.000000	
49.055420	1492.000000	
49.075927	1444.000000	
49.096435	1432.000000	
49.116943	1437.000000	
49.137451	1448.000000	
49.157958	1409.000000	
49.178466	1402.000000	
49.198974	1406.000000	
49.219481	1477.000000	
49.239989	1478.000000	
49.260497	1458.000000	
49.281004	1519.000000	
49.301512	1473.000000	
49.322020	1496.000000	
49.342528	1504.000000	
49.363035	1536.000000	
49.383543	1518.000000	
49.404051	1630.000000	
49.424558	1629.000000	
49.445066	1640.000000	
49.465574	1697.000000	
49.486081	1775.000000	
49.506589	1760.000000	
49.527097	1834.000000	
49.547605	1922.000000	
49.568112	1833.000000	
49.588620	1802.000000	
49.609128	1918.000000	
49.629635	1929.000000	
49.650143	1951.000000	
49.670651	1995.000000	
49.691158	1948.000000	
49.711666	2018.000000	
49.732174	2057.000000	
49.752682	1973.000000	
49.773189	2078.000000	
49.793697	1964.000000	
49.814205	1985.000000	
49.834712	1835.000000	
49.855220	1860.000000	
49.875728	1845.000000	
49.896236	1852.000000	
49.916743	1759.000000	
49.937251	1758.000000	
49.957759	1727.000000	
49.978266	1697.000000	
49.998774	1632.000000	
50.019282	1640.000000	
50.039789	1545.000000	
50.060297	1521.000000	
50.080805	1609.000000	
50.101313	1544.000000	
50.121820	1618.000000	
50.142328	1613.000000	
50.162836	1473.000000	
50.183343	1481.000000	
50.203851	1527.000000	
50.224359	1600.000000	
50.244866	1546.000000	
50.265374	1538.000000	
50.285882	1525.000000	
50.306390	1516.000000	
50.326897	1583.000000	
50.347405	1541.000000	
50.367913	1484.000000	
50.388420	1488.000000	
50.408928	1518.000000	
50.429436	1554.000000	
50.449943	1523.000000	
50.470451	1544.000000	
50.490959	1568.000000	
50.511467	1452.000000	
50.531974	1469.000000	
50.552482	1501.000000	
50.572990	1493.000000	
50.593497	1529.000000	
50.614005	1433.000000	
50.634513	1515.000000	
50.655020	1469.000000	
50.675528	1514.000000	
50.696036	1431.000000	
50.716544	1505.000000	
50.737051	1391.000000	
50.757559	1441.000000	
50.778067	1465.000000	
50.798574	1382.000000	
50.819082	1424.000000	
50.839590	1401.000000	
50.860097	1466.000000	
50.880605	1447.000000	
50.901113	1482.000000	
50.921621	1441.000000	
50.942128	1493.000000	
50.962636	1514.000000	
50.983144	1428.000000	
51.003651	1452.000000	
51.024159	1440.000000	
51.044667	1465.000000	
51.065174	1569.000000	
51.085682	1580.000000	
51.106190	1558.000000	
51.126698	1530.000000	
51.147205	1544.000000	
51.167713	1561.000000	
51.188221	1642.000000	
51.208728	1592.000000	
51.229236	1606.000000	
51.249744	1577.000000	
51.270251	1566.000000	
51.290759	1591.000000	
51.311267	1496.000000	
51.331775	1611.000000	
51.352282	1621.000000	
51.372790	1568.000000	
51.393298	1573.000000	
51.413805	1562.000000	
51.434313	1474.000000	
51.454821	1501.000000	
51.475329	1390.000000	
51.495836	1522.000000	
51.516344	1470.000000	
51.536852	1484.000000	
51.557359	1404.000000	
51.577867	1373.000000	
51.598375	1373.000000	
51.618882	1449.000000	
51.639390	1442.000000	
51.659898	1292.000000	
51.680406	1388.000000	
51.700913	1326.000000	
51.721421	1301.000000	
51.741929	1374.000000	
51.762436	1323.000000	
51.782944	1336.000000	
51.803452	1377.000000	
51.823959	1329.000000	
51.844467	1337.000000	
51.864975	1349.000000	
51.885483	1285.000000	
51.905990	1407.000000	
51.926498	1364.000000	
51.947006	1309.000000	
51.967513	1321.000000	
51.988021	1346.000000	
52.008529	1402.000000	
52.029036	1395.000000	
52.049544	1377.000000	
52.070052	1359.000000	
52.090560	1373.000000	
52.111067	1340.000000	
52.131575	1362.000000	
52.152083	1399.000000	
52.172590	1384.000000	
52.193098	1324.000000	
52.213606	1316.000000	
52.234113	1298.000000	
52.254621	1294.000000	
52.275129	1349.000000	
52.295637	1298.000000	
52.316144	1364.000000	
52.336652	1294.000000	
52.357160	1343.000000	
52.377667	1294.000000	
52.398175	1244.000000	
52.418683	1240.000000	
52.439190	1257.000000	
52.459698	1273.000000	
52.480206	1268.000000	
52.500714	1269.000000	
52.521221	1258.000000	
52.541729	1234.000000	
52.562237	1208.000000	
52.582744	1241.000000	
52.603252	1270.000000	
52.623760	1279.000000	
52.644267	1299.000000	
52.664775	1216.000000	
52.685283	1154.000000	
52.705791	1250.000000	
52.726298	1139.000000	
52.746806	1140.000000	
52.767314	1178.000000	
52.787821	1138.000000	
52.808329	1174.000000	
52.828837	1134.000000	
52.849344	1164.000000	
52.869852	1163.000000	
52.890360	1154.000000	
52.910868	1105.000000	
52.931375	1151.000000	
52.951883	1201.000000	
52.972391	1189.000000	
52.992898	1155.000000	
53.013406	1174.000000	
53.033914	1112.000000	
53.054422	1155.000000	
53.074929	1120.000000	
53.095437	1108.000000	
53.115945	1130.000000	
53.136452	1153.000000	
53.156960	1128.000000	
53.177468	1146.000000	
53.197975	1115.000000	
53.218483	1126.000000	
53.238991	1116.000000	
53.259499	1157.000000	
53.280006	1180.000000	
53.300514	1143.000000	
53.321022	1122.000000	
53.341529	1116.000000	
53.362037	1138.000000	
53.382545	1154.000000	
53.403052	1121.000000	
53.423560	1189.000000	
53.444068	1114.000000	
53.464576	1118.000000	
53.485083	1226.000000	
53.505591	1177.000000	
53.526099	1155.000000	
53.546606	1150.000000	
53.567114	1152.000000	
53.587622	1163.000000	
53.608129	1181.000000	
53.628637	1224.000000	
53.649145	1149.000000	
53.669653	1146.000000	
53.690160	1158.000000	
53.710668	1156.000000	
53.731176	1179.000000	
53.751683	1130.000000	
53.772191	1209.000000	
53.792699	1158.000000	
53.813206	1244.000000	
53.833714	1169.000000	
53.854222	1194.000000	
53.874730	1218.000000	
53.895237	1143.000000	
53.915745	1192.000000	
53.936253	1196.000000	
53.956760	1186.000000	
53.977268	1259.000000	
53.997776	1247.000000	
54.018283	1247.000000	
54.038791	1200.000000	
54.059299	1309.000000	
54.079807	1244.000000	
54.100314	1220.000000	
54.120822	1323.000000	
54.141330	1298.000000	
54.161837	1309.000000	
54.182345	1343.000000	
54.202853	1363.000000	
54.223360	1388.000000	
54.243868	1368.000000	
54.264376	1424.000000	
54.284884	1439.000000	
54.305391	1509.000000	
54.325899	1486.000000	
54.346407	1521.000000	
54.366914	1516.000000	
54.387422	1462.000000	
54.407930	1442.000000	
54.428437	1542.000000	
54.448945	1406.000000	
54.469453	1562.000000	
54.489961	1488.000000	
54.510468	1477.000000	
54.530976	1478.000000	
54.551484	1395.000000	
54.571991	1444.000000	
54.592499	1409.000000	
54.613007	1375.000000	
54.633515	1360.000000	
54.654022	1320.000000	
54.674530	1354.000000	
54.695038	1350.000000	
54.715545	1296.000000	
54.736053	1254.000000	
54.756561	1203.000000	
54.777068	1293.000000	
54.797576	1320.000000	
54.818084	1312.000000	
54.838592	1368.000000	
54.859099	1238.000000	
54.879607	1286.000000	
54.900115	1312.000000	
54.920622	1323.000000	
54.941130	1348.000000	
54.961638	1345.000000	
54.982145	1386.000000	
55.002653	1360.000000	
55.023161	1386.000000	
55.043669	1421.000000	
55.064176	1366.000000	
55.084684	1447.000000	
55.105192	1538.000000	
55.125699	1485.000000	
55.146207	1528.000000	
55.166715	1558.000000	
55.187222	1467.000000	
55.207730	1551.000000	
55.228238	1585.000000	
55.248746	1534.000000	
55.269253	1560.000000	
55.289761	1494.000000	
55.310269	1447.000000	
55.330776	1503.000000	
55.351284	1511.000000	
55.371792	1416.000000	
55.392299	1467.000000	
55.412807	1402.000000	
55.433315	1480.000000	
55.453823	1430.000000	
55.474330	1380.000000	
55.494838	1525.000000	
55.515346	1492.000000	
55.535853	1415.000000	
55.556361	1517.000000	
55.576869	1396.000000	
55.597376	1486.000000	
55.617884	1395.000000	
55.638392	1457.000000	
55.658900	1422.000000	
55.679407	1490.000000	
55.699915	1446.000000	
55.720423	1440.000000	
55.740930	1419.000000	
55.761438	1407.000000	
55.781946	1458.000000	
55.802453	1449.000000	
55.822961	1444.000000	
55.843469	1391.000000	
55.863977	1374.000000	
55.884484	1404.000000	
55.904992	1336.000000	
55.925500	1341.000000	
55.946007	1283.000000	
55.966515	1334.000000	
55.987023	1271.000000	
56.007530	1337.000000	
56.028038	1316.000000	
56.048546	1319.000000	
56.069054	1281.000000	
56.089561	1254.000000	
56.110069	1327.000000	
56.130577	1364.000000	
56.151084	1339.000000	
56.171592	1417.000000	
56.192100	1386.000000	
56.212608	1393.000000	
56.233115	1409.000000	
56.253623	1360.000000	
56.274131	1373.000000	
56.294638	1368.000000	
56.315146	1359.000000	
56.335654	1418.000000	
56.356161	1395.000000	
56.376669	1358.000000	
56.397177	1419.000000	
56.417685	1350.000000	
56.438192	1343.000000	
56.458700	1369.000000	
56.479208	1332.000000	
56.499715	1329.000000	
56.520223	1346.000000	
56.540731	1297.000000	
56.561238	1321.000000	
56.581746	1257.000000	
56.602254	1249.000000	
56.622762	1356.000000	
56.643269	1292.000000	
56.663777	1291.000000	
56.684285	1258.000000	
56.704792	1277.000000	
56.725300	1282.000000	
56.745808	1256.000000	
56.766315	1240.000000	
56.786823	1282.000000	
56.807331	1202.000000	
56.827839	1239.000000	
56.848346	1263.000000	
56.868854	1262.000000	
56.889362	1226.000000	
56.909869	1229.000000	
56.930377	1179.000000	
56.950885	1099.000000	
56.971392	1152.000000	
56.991900	1115.000000	
57.012408	1080.000000	
57.032916	1134.000000	
57.053423	1129.000000	
57.073931	1092.000000	
57.094439	1146.000000	
57.114946	1157.000000	
57.135454	1053.000000	
57.155962	1137.000000	
57.176469	1077.000000	
57.196977	1114.000000	
57.217485	1130.000000	
57.237993	1163.000000	
57.258500	1077.000000	
57.279008	1169.000000	
57.299516	1168.000000	
57.320023	1126.000000	
57.340531	1159.000000	
57.361039	1150.000000	
57.381546	1111.000000	
57.402054	1122.000000	
57.422562	1162.000000	
57.443070	1157.000000	
57.463577	1074.000000	
57.484085	1123.000000	
57.504593	1125.000000	
57.525100	1128.000000	
57.545608	1096.000000	
57.566116	1125.000000	
57.586623	1143.000000	
57.607131	1070.000000	
57.627639	1140.000000	
57.648147	1104.000000	
57.668654	1131.000000	
57.689162	1130.000000	
57.709670	1110.000000	
57.730177	1130.000000	
57.750685	1095.000000	
57.771193	1188.000000	
57.791701	1110.000000	
57.812208	1145.000000	
57.832716	1133.000000	
57.853224	1153.000000	
57.873731	1202.000000	
57.894239	1100.000000	
57.914747	1061.000000	
57.935254	1170.000000	
57.955762	1114.000000	
57.976270	1133.000000	
57.996778	1152.000000	
58.017285	1125.000000	
58.037793	1160.000000	
58.058301	1091.000000	
58.078808	1190.000000	
58.099316	1154.000000	
58.119824	1141.000000	
58.140331	1129.000000	
58.160839	1157.000000	
58.181347	1175.000000	
58.201855	1063.000000	
58.222362	1166.000000	
58.242870	1077.000000	
58.263378	1136.000000	
58.283885	1076.000000	
58.304393	1089.000000	
58.324901	1042.000000	
58.345408	1094.000000	
58.365916	1099.000000	
58.386424	1089.000000	
58.406932	1012.000000	
58.427439	1081.000000	
58.447947	1119.000000	
58.468455	1111.000000	
58.488962	1083.000000	
58.509470	1107.000000	
58.529978	1087.000000	
58.550485	1107.000000	
58.570993	1066.000000	
58.591501	1129.000000	
58.612009	1176.000000	
58.632516	1141.000000	
58.653024	1131.000000	
58.673532	1123.000000	
58.694039	1079.000000	
58.714547	1154.000000	
58.735055	1128.000000	
58.755562	1143.000000	
58.776070	1117.000000	
58.796578	1162.000000	
58.817086	1121.000000	
58.837593	1110.000000	
58.858101	1096.000000	
58.878609	1109.000000	
58.899116	1105.000000	
58.919624	1049.000000	
58.940132	1045.000000	
58.960639	1060.000000	
58.981147	1154.000000	
59.001655	1012.000000	
59.022163	1088.000000	
59.042670	1057.000000	
59.063178	1107.000000	
59.083686	1003.000000	
59.104193	1031.000000	
59.124701	985.000000	
59.145209	1059.000000	
59.165716	1007.000000	
59.186224	1060.000000	
59.206732	972.000000	
59.227240	999.000000	
59.247747	1050.000000	
59.268255	1053.000000	
59.288763	1003.000000	
59.309270	1006.000000	
59.329778	958.000000	
59.350286	990.000000	
59.370794	1043.000000	
59.391301	980.000000	
59.411809	1033.000000	
59.432317	997.000000	
59.452824	984.000000	
59.473332	1047.000000	
59.493840	1037.000000	
59.514347	989.000000	
59.534855	958.000000	
59.555363	985.000000	
59.575871	1024.000000	
59.596378	1033.000000	
59.616886	988.000000	
59.637394	983.000000	
59.657901	959.000000	
59.678409	983.000000	
59.698917	964.000000	
59.719424	950.000000	
59.739932	970.000000	
59.760440	1038.000000	
59.780948	956.000000	
59.801455	953.000000	
59.821963	998.000000	
59.842471	996.000000	
59.862978	1001.000000	
59.883486	998.000000	
59.903994	998.000000	
59.924501	1026.000000	
59.945009	1037.000000	
59.965517	962.000000	
59.986025	1010.000000	
60.006532	1004.000000	
