;content of C:\2026\IF\Dr-IVAN\26-02-2026\FTN2.raw - (Diffrac Plus V4 file)
_FILEVERSION = 3
_SAMPLE = FTN2
_+SAMPLE
_USER = Lab Manager
_GONIOMETER_CODE = 21
_STAGE_CODE = 7
; Goniometer : D8 theta/theta, stage : Chi drive
_SAMPLE_CHANGER_CODE = 0
_ATTACHMENTS_CODE = 0
_GONIOMETER_RADIUS = 280
_SOLLER_SLITS = 2
_FIXED_DETSLIT = 6
_MONOCHROMATOR = 0
; Incident beam monochromator : None
_BETA_FILTER = N
_ANALYZER_CODE = 0
; Received beam analyzer : None
_DATEMEASURED = 25-Feb-2026 13:08:24
_RUNTIME = 1738.139
_WL_UNIT = A
_WL1 = 1.540600
_WL2 = 1.544390
_WL3 = 1.392220
_WLRATIO = 0.500000
_ANODE = Cu
_V4_INF_USER = Lab Manager
_V4_INF_SAMPLEID = FTN2
_V4_INF_CREATOR = BrmlToV4Converter
_V4_INF_CREATOR_VERSION = 7.3.1.0

; Data for range 1
_DRIVE = COUPLED
_STEPTIME = 115.2
_STEPSIZE = 0.020508
_STEPMODE = C
_START = 4.000000
_THETA = 2.000000
_2THETA = 4.000000
_PHI = 255.718750
_DIVERGENCE = 0.379996
_DETECTORSLIT = out
_TIMESTARTED = 0
_ROTATION_SPEED = 15
_KV = 40
_MA = 35
_RANGE_WL = 1.541800
_3DPLANE = 0
_V4_PSD2THETA = 9999.000000
_V4_PSDCHANNEL1 = 0
_V4_PSDAPERTURE = 2.953109
_V4_PSDTYPE = 5
_V4_PSDFIXED = 0
_V4_COUNTERS_MASK = 1
_V4_DRIVES_MASK = 0
_V4_ENCODERS_MASK = 0
_2THETACOUNTS = 1
; 2THETA	Cnt2_D1	
4.000000	452.000000	
4.020508	399.000000	
4.041015	426.000000	
4.061523	425.000000	
4.082031	396.000000	
4.102539	393.000000	
4.123046	412.000000	
4.143554	365.000000	
4.164062	421.000000	
4.184569	427.000000	
4.205077	405.000000	
4.225585	431.000000	
4.246092	380.000000	
4.266600	435.000000	
4.287108	405.000000	
4.307616	413.000000	
4.328123	368.000000	
4.348631	373.000000	
4.369139	379.000000	
4.389646	397.000000	
4.410154	416.000000	
4.430662	388.000000	
4.451169	383.000000	
4.471677	394.000000	
4.492185	359.000000	
4.512693	371.000000	
4.533200	395.000000	
4.553708	344.000000	
4.574216	381.000000	
4.594723	351.000000	
4.615231	363.000000	
4.635739	405.000000	
4.656246	365.000000	
4.676754	368.000000	
4.697262	398.000000	
4.717770	367.000000	
4.738277	364.000000	
4.758785	369.000000	
4.779293	367.000000	
4.799800	355.000000	
4.820308	336.000000	
4.840816	376.000000	
4.861323	357.000000	
4.881831	324.000000	
4.902339	358.000000	
4.922847	331.000000	
4.943354	372.000000	
4.963862	327.000000	
4.984370	341.000000	
5.004877	329.000000	
5.025385	338.000000	
5.045893	329.000000	
5.066400	321.000000	
5.086908	340.000000	
5.107416	343.000000	
5.127924	316.000000	
5.148431	333.000000	
5.168939	346.000000	
5.189447	320.000000	
5.209954	381.000000	
5.230462	350.000000	
5.250970	346.000000	
5.271477	344.000000	
5.291985	340.000000	
5.312493	350.000000	
5.333001	375.000000	
5.353508	367.000000	
5.374016	345.000000	
5.394524	315.000000	
5.415031	349.000000	
5.435539	340.000000	
5.456047	346.000000	
5.476554	321.000000	
5.497062	367.000000	
5.517570	305.000000	
5.538078	349.000000	
5.558585	361.000000	
5.579093	367.000000	
5.599601	352.000000	
5.620108	302.000000	
5.640616	358.000000	
5.661124	319.000000	
5.681632	367.000000	
5.702139	344.000000	
5.722647	336.000000	
5.743155	336.000000	
5.763662	320.000000	
5.784170	354.000000	
5.804678	336.000000	
5.825185	362.000000	
5.845693	347.000000	
5.866201	337.000000	
5.886709	327.000000	
5.907216	357.000000	
5.927724	334.000000	
5.948232	328.000000	
5.968739	354.000000	
5.989247	348.000000	
6.009755	324.000000	
6.030262	303.000000	
6.050770	340.000000	
6.071278	316.000000	
6.091786	323.000000	
6.112293	328.000000	
6.132801	333.000000	
6.153309	325.000000	
6.173816	341.000000	
6.194324	352.000000	
6.214832	328.000000	
6.235339	315.000000	
6.255847	357.000000	
6.276355	346.000000	
6.296863	334.000000	
6.317370	349.000000	
6.337878	330.000000	
6.358386	328.000000	
6.378893	314.000000	
6.399401	333.000000	
6.419909	338.000000	
6.440416	319.000000	
6.460924	333.000000	
6.481432	308.000000	
6.501940	340.000000	
6.522447	331.000000	
6.542955	341.000000	
6.563463	319.000000	
6.583970	374.000000	
6.604478	332.000000	
6.624986	313.000000	
6.645493	312.000000	
6.666001	365.000000	
6.686509	352.000000	
6.707017	319.000000	
6.727524	344.000000	
6.748032	326.000000	
6.768540	327.000000	
6.789047	331.000000	
6.809555	291.000000	
6.830063	333.000000	
6.850570	335.000000	
6.871078	345.000000	
6.891586	323.000000	
6.912094	338.000000	
6.932601	299.000000	
6.953109	337.000000	
6.973617	345.000000	
6.994124	335.000000	
7.014632	302.000000	
7.035140	343.000000	
7.055647	331.000000	
7.076155	362.000000	
7.096663	339.000000	
7.117171	293.000000	
7.137678	334.000000	
7.158186	314.000000	
7.178694	326.000000	
7.199201	335.000000	
7.219709	336.000000	
7.240217	368.000000	
7.260725	313.000000	
7.281232	346.000000	
7.301740	315.000000	
7.322248	321.000000	
7.342755	343.000000	
7.363263	323.000000	
7.383771	322.000000	
7.404278	340.000000	
7.424786	321.000000	
7.445294	373.000000	
7.465802	311.000000	
7.486309	319.000000	
7.506817	345.000000	
7.527325	318.000000	
7.547832	339.000000	
7.568340	340.000000	
7.588848	374.000000	
7.609355	368.000000	
7.629863	319.000000	
7.650371	323.000000	
7.670879	331.000000	
7.691386	357.000000	
7.711894	346.000000	
7.732402	329.000000	
7.752909	367.000000	
7.773417	364.000000	
7.793925	384.000000	
7.814432	349.000000	
7.834940	355.000000	
7.855448	367.000000	
7.875956	347.000000	
7.896463	378.000000	
7.916971	372.000000	
7.937479	327.000000	
7.957986	320.000000	
7.978494	363.000000	
7.999002	328.000000	
8.019509	349.000000	
8.040017	330.000000	
8.060525	321.000000	
8.081033	307.000000	
8.101540	333.000000	
8.122048	346.000000	
8.142556	348.000000	
8.163063	335.000000	
8.183571	333.000000	
8.204079	362.000000	
8.224586	335.000000	
8.245094	360.000000	
8.265602	308.000000	
8.286110	365.000000	
8.306617	325.000000	
8.327125	353.000000	
8.347633	328.000000	
8.368140	317.000000	
8.388648	335.000000	
8.409156	337.000000	
8.429663	353.000000	
8.450171	358.000000	
8.470679	335.000000	
8.491187	387.000000	
8.511694	353.000000	
8.532202	359.000000	
8.552710	360.000000	
8.573217	355.000000	
8.593725	367.000000	
8.614233	356.000000	
8.634740	352.000000	
8.655248	319.000000	
8.675756	363.000000	
8.696264	352.000000	
8.716771	344.000000	
8.737279	349.000000	
8.757787	330.000000	
8.778294	337.000000	
8.798802	328.000000	
8.819310	354.000000	
8.839818	376.000000	
8.860325	374.000000	
8.880833	338.000000	
8.901341	362.000000	
8.921848	343.000000	
8.942356	344.000000	
8.962864	379.000000	
8.983371	368.000000	
9.003879	365.000000	
9.024387	385.000000	
9.044895	339.000000	
9.065402	351.000000	
9.085910	393.000000	
9.106418	358.000000	
9.126925	380.000000	
9.147433	373.000000	
9.167941	409.000000	
9.188448	346.000000	
9.208956	367.000000	
9.229464	401.000000	
9.249972	384.000000	
9.270479	407.000000	
9.290987	380.000000	
9.311495	379.000000	
9.332002	355.000000	
9.352510	374.000000	
9.373018	372.000000	
9.393525	378.000000	
9.414033	347.000000	
9.434541	385.000000	
9.455049	330.000000	
9.475556	357.000000	
9.496064	399.000000	
9.516572	385.000000	
9.537079	390.000000	
9.557587	383.000000	
9.578095	355.000000	
9.598602	424.000000	
9.619110	348.000000	
9.639618	386.000000	
9.660126	388.000000	
9.680633	419.000000	
9.701141	381.000000	
9.721649	421.000000	
9.742156	359.000000	
9.762664	410.000000	
9.783172	362.000000	
9.803679	354.000000	
9.824187	417.000000	
9.844695	387.000000	
9.865203	389.000000	
9.885710	446.000000	
9.906218	390.000000	
9.926726	433.000000	
9.947233	454.000000	
9.967741	401.000000	
9.988249	421.000000	
10.008756	387.000000	
10.029264	442.000000	
10.049772	385.000000	
10.070280	430.000000	
10.090787	421.000000	
10.111295	430.000000	
10.131803	464.000000	
10.152310	487.000000	
10.172818	484.000000	
10.193326	444.000000	
10.213833	460.000000	
10.234341	449.000000	
10.254849	466.000000	
10.275357	522.000000	
10.295864	491.000000	
10.316372	514.000000	
10.336880	524.000000	
10.357387	558.000000	
10.377895	544.000000	
10.398403	597.000000	
10.418911	563.000000	
10.439418	641.000000	
10.459926	633.000000	
10.480434	667.000000	
10.500941	689.000000	
10.521449	716.000000	
10.541957	839.000000	
10.562464	839.000000	
10.582972	893.000000	
10.603480	982.000000	
10.623988	1097.000000	
10.644495	1217.000000	
10.665003	1285.000000	
10.685511	1473.000000	
10.706018	1434.000000	
10.726526	1237.000000	
10.747034	1163.000000	
10.767541	832.000000	
10.788049	796.000000	
10.808557	788.000000	
10.829065	759.000000	
10.849572	747.000000	
10.870080	764.000000	
10.890588	778.000000	
10.911095	775.000000	
10.931603	721.000000	
10.952111	675.000000	
10.972618	675.000000	
10.993126	609.000000	
11.013634	590.000000	
11.034142	646.000000	
11.054649	596.000000	
11.075157	687.000000	
11.095665	615.000000	
11.116172	714.000000	
11.136680	693.000000	
11.157188	701.000000	
11.177695	747.000000	
11.198203	720.000000	
11.218711	824.000000	
11.239219	901.000000	
11.259726	950.000000	
11.280234	1052.000000	
11.300742	1052.000000	
11.321249	1251.000000	
11.341757	1378.000000	
11.362265	1430.000000	
11.382772	1599.000000	
11.403280	1760.000000	
11.423788	1848.000000	
11.444296	1996.000000	
11.464803	2239.000000	
11.485311	2573.000000	
11.505819	2925.000000	
11.526326	3245.000000	
11.546834	3668.000000	
11.567342	4450.000000	
11.587849	5283.000000	
11.608357	6291.000000	
11.628865	7416.000000	
11.649373	8690.000000	
11.669880	10383.000000	
11.690388	11801.000000	
11.710896	12653.000000	
11.731403	12174.000000	
11.751911	9275.000000	
11.772419	6633.000000	
11.792926	4783.000000	
11.813434	4286.000000	
11.833942	4119.000000	
11.854450	3903.000000	
11.874957	3506.000000	
11.895465	3017.000000	
11.915973	2345.000000	
11.936480	2012.000000	
11.956988	1629.000000	
11.977496	1391.000000	
11.998004	1266.000000	
12.018511	1198.000000	
12.039019	1130.000000	
12.059527	1061.000000	
12.080034	1006.000000	
12.100542	1018.000000	
12.121050	952.000000	
12.141557	946.000000	
12.162065	949.000000	
12.182573	953.000000	
12.203081	955.000000	
12.223588	881.000000	
12.244096	851.000000	
12.264604	871.000000	
12.285111	879.000000	
12.305619	835.000000	
12.326127	851.000000	
12.346634	821.000000	
12.367142	917.000000	
12.387650	866.000000	
12.408158	843.000000	
12.428665	835.000000	
12.449173	831.000000	
12.469681	885.000000	
12.490188	875.000000	
12.510696	901.000000	
12.531204	860.000000	
12.551711	879.000000	
12.572219	852.000000	
12.592727	866.000000	
12.613235	902.000000	
12.633742	938.000000	
12.654250	854.000000	
12.674758	935.000000	
12.695265	918.000000	
12.715773	910.000000	
12.736281	938.000000	
12.756788	1004.000000	
12.777296	899.000000	
12.797804	925.000000	
12.818312	944.000000	
12.838819	938.000000	
12.859327	888.000000	
12.879835	910.000000	
12.900342	886.000000	
12.920850	925.000000	
12.941358	925.000000	
12.961865	1022.000000	
12.982373	1012.000000	
13.002881	1048.000000	
13.023389	1055.000000	
13.043896	1112.000000	
13.064404	1128.000000	
13.084912	1160.000000	
13.105419	1301.000000	
13.125927	1242.000000	
13.146435	1348.000000	
13.166942	1410.000000	
13.187450	1515.000000	
13.207958	1587.000000	
13.228466	1688.000000	
13.248973	1875.000000	
13.269481	2054.000000	
13.289989	2072.000000	
13.310496	2274.000000	
13.331004	2293.000000	
13.351512	2399.000000	
13.372019	2524.000000	
13.392527	2505.000000	
13.413035	2350.000000	
13.433543	2164.000000	
13.454050	2040.000000	
13.474558	1881.000000	
13.495066	1793.000000	
13.515573	1745.000000	
13.536081	1582.000000	
13.556589	1709.000000	
13.577097	1776.000000	
13.597604	1789.000000	
13.618112	1862.000000	
13.638620	1696.000000	
13.659127	1638.000000	
13.679635	1491.000000	
13.700143	1216.000000	
13.720650	1132.000000	
13.741158	1088.000000	
13.761666	1007.000000	
13.782174	959.000000	
13.802681	944.000000	
13.823189	994.000000	
13.843697	922.000000	
13.864204	958.000000	
13.884712	908.000000	
13.905220	896.000000	
13.925727	961.000000	
13.946235	903.000000	
13.966743	891.000000	
13.987251	902.000000	
14.007758	891.000000	
14.028266	875.000000	
14.048774	884.000000	
14.069281	928.000000	
14.089789	968.000000	
14.110297	911.000000	
14.130804	891.000000	
14.151312	915.000000	
14.171820	926.000000	
14.192328	983.000000	
14.212835	914.000000	
14.233343	893.000000	
14.253851	933.000000	
14.274358	939.000000	
14.294866	901.000000	
14.315374	986.000000	
14.335881	1027.000000	
14.356389	985.000000	
14.376897	1004.000000	
14.397405	1058.000000	
14.417912	1099.000000	
14.438420	1095.000000	
14.458928	1119.000000	
14.479435	1113.000000	
14.499943	1152.000000	
14.520451	1150.000000	
14.540958	1251.000000	
14.561466	1211.000000	
14.581974	1275.000000	
14.602482	1330.000000	
14.622989	1407.000000	
14.643497	1258.000000	
14.664005	1346.000000	
14.684512	1278.000000	
14.705020	1211.000000	
14.725528	1152.000000	
14.746035	1064.000000	
14.766543	991.000000	
14.787051	952.000000	
14.807559	961.000000	
14.828066	945.000000	
14.848574	960.000000	
14.869082	907.000000	
14.889589	919.000000	
14.910097	962.000000	
14.930605	889.000000	
14.951112	910.000000	
14.971620	936.000000	
14.992128	935.000000	
15.012636	886.000000	
15.033143	871.000000	
15.053651	920.000000	
15.074159	893.000000	
15.094666	958.000000	
15.115174	929.000000	
15.135682	965.000000	
15.156190	909.000000	
15.176697	887.000000	
15.197205	871.000000	
15.217713	959.000000	
15.238220	934.000000	
15.258728	942.000000	
15.279236	922.000000	
15.299743	979.000000	
15.320251	988.000000	
15.340759	971.000000	
15.361267	944.000000	
15.381774	939.000000	
15.402282	971.000000	
15.422790	899.000000	
15.443297	991.000000	
15.463805	942.000000	
15.484313	953.000000	
15.504820	950.000000	
15.525328	1014.000000	
15.545836	988.000000	
15.566344	981.000000	
15.586851	975.000000	
15.607359	970.000000	
15.627867	960.000000	
15.648374	954.000000	
15.668882	1040.000000	
15.689390	974.000000	
15.709897	978.000000	
15.730405	1078.000000	
15.750913	1054.000000	
15.771421	1093.000000	
15.791928	978.000000	
15.812436	1004.000000	
15.832944	993.000000	
15.853451	1063.000000	
15.873959	1112.000000	
15.894467	1094.000000	
15.914974	1084.000000	
15.935482	1083.000000	
15.955990	1103.000000	
15.976498	1076.000000	
15.997005	1060.000000	
16.017513	1109.000000	
16.038021	1087.000000	
16.058528	1096.000000	
16.079036	1098.000000	
16.099544	1117.000000	
16.120051	1133.000000	
16.140559	1119.000000	
16.161067	1223.000000	
16.181575	1196.000000	
16.202082	1154.000000	
16.222590	1203.000000	
16.243098	1116.000000	
16.263605	1223.000000	
16.284113	1284.000000	
16.304621	1366.000000	
16.325128	1502.000000	
16.345636	1365.000000	
16.366144	1563.000000	
16.386652	1626.000000	
16.407159	1704.000000	
16.427667	1924.000000	
16.448175	1968.000000	
16.468682	2071.000000	
16.489190	2161.000000	
16.509698	2226.000000	
16.530205	2412.000000	
16.550713	2542.000000	
16.571221	2617.000000	
16.591729	2869.000000	
16.612236	2961.000000	
16.632744	3129.000000	
16.653252	3452.000000	
16.673759	3618.000000	
16.694267	3847.000000	
16.714775	4158.000000	
16.735283	4235.000000	
16.755790	4093.000000	
16.776298	3641.000000	
16.796806	2871.000000	
16.817313	2445.000000	
16.837821	1899.000000	
16.858329	1614.000000	
16.878836	1479.000000	
16.899344	1378.000000	
16.919852	1333.000000	
16.940360	1236.000000	
16.960867	1334.000000	
16.981375	1221.000000	
17.001883	1266.000000	
17.022390	1229.000000	
17.042898	1261.000000	
17.063406	1268.000000	
17.083913	1295.000000	
17.104421	1270.000000	
17.124929	1317.000000	
17.145437	1242.000000	
17.165944	1280.000000	
17.186452	1260.000000	
17.206960	1250.000000	
17.227467	1341.000000	
17.247975	1318.000000	
17.268483	1419.000000	
17.288990	1378.000000	
17.309498	1351.000000	
17.330006	1372.000000	
17.350514	1336.000000	
17.371021	1385.000000	
17.391529	1388.000000	
17.412037	1369.000000	
17.432544	1324.000000	
17.453052	1357.000000	
17.473560	1278.000000	
17.494067	1203.000000	
17.514575	1201.000000	
17.535083	1210.000000	
17.555591	1219.000000	
17.576098	1224.000000	
17.596606	1226.000000	
17.617114	1257.000000	
17.637621	1249.000000	
17.658129	1280.000000	
17.678637	1309.000000	
17.699144	1272.000000	
17.719652	1261.000000	
17.740160	1316.000000	
17.760668	1336.000000	
17.781175	1384.000000	
17.801683	1428.000000	
17.822191	1412.000000	
17.842698	1447.000000	
17.863206	1561.000000	
17.883714	1564.000000	
17.904221	1691.000000	
17.924729	1612.000000	
17.945237	1639.000000	
17.965745	1772.000000	
17.986252	1682.000000	
18.006760	1832.000000	
18.027268	1847.000000	
18.047775	1783.000000	
18.068283	1890.000000	
18.088791	2040.000000	
18.109298	2062.000000	
18.129806	2149.000000	
18.150314	2184.000000	
18.170822	2261.000000	
18.191329	2198.000000	
18.211837	2206.000000	
18.232345	2115.000000	
18.252852	2073.000000	
18.273360	2042.000000	
18.293868	2021.000000	
18.314376	1930.000000	
18.334883	1974.000000	
18.355391	2089.000000	
18.375899	2156.000000	
18.396406	2162.000000	
18.416914	2320.000000	
18.437422	2387.000000	
18.457929	2378.000000	
18.478437	2405.000000	
18.498945	2453.000000	
18.519453	2478.000000	
18.539960	2383.000000	
18.560468	2442.000000	
18.580976	2352.000000	
18.601483	2322.000000	
18.621991	2279.000000	
18.642499	2263.000000	
18.663006	2261.000000	
18.683514	2139.000000	
18.704022	2299.000000	
18.724530	2316.000000	
18.745037	2300.000000	
18.765545	2479.000000	
18.786053	2512.000000	
18.806560	2483.000000	
18.827068	2405.000000	
18.847576	2429.000000	
18.868083	2287.000000	
18.888591	2168.000000	
18.909099	2091.000000	
18.929607	1813.000000	
18.950114	1759.000000	
18.970622	1575.000000	
18.991130	1487.000000	
19.011637	1522.000000	
19.032145	1518.000000	
19.052653	1462.000000	
19.073160	1442.000000	
19.093668	1380.000000	
19.114176	1358.000000	
19.134684	1328.000000	
19.155191	1362.000000	
19.175699	1373.000000	
19.196207	1364.000000	
19.216714	1299.000000	
19.237222	1396.000000	
19.257730	1334.000000	
19.278237	1286.000000	
19.298745	1356.000000	
19.319253	1343.000000	
19.339761	1414.000000	
19.360268	1337.000000	
19.380776	1384.000000	
19.401284	1367.000000	
19.421791	1331.000000	
19.442299	1368.000000	
19.462807	1358.000000	
19.483314	1306.000000	
19.503822	1358.000000	
19.524330	1418.000000	
19.544838	1334.000000	
19.565345	1392.000000	
19.585853	1389.000000	
19.606361	1471.000000	
19.626868	1448.000000	
19.647376	1496.000000	
19.667884	1559.000000	
19.688391	1508.000000	
19.708899	1586.000000	
19.729407	1583.000000	
19.749915	1638.000000	
19.770422	1622.000000	
19.790930	1661.000000	
19.811438	1775.000000	
19.831945	1768.000000	
19.852453	1817.000000	
19.872961	1852.000000	
19.893469	1911.000000	
19.913976	1875.000000	
19.934484	1957.000000	
19.954992	1875.000000	
19.975499	2064.000000	
19.996007	1934.000000	
20.016515	1916.000000	
20.037022	1826.000000	
20.057530	1866.000000	
20.078038	1830.000000	
20.098546	1770.000000	
20.119053	1640.000000	
20.139561	1693.000000	
20.160069	1730.000000	
20.180576	1570.000000	
20.201084	1668.000000	
20.221592	1640.000000	
20.242099	1611.000000	
20.262607	1632.000000	
20.283115	1561.000000	
20.303623	1700.000000	
20.324130	1689.000000	
20.344638	1612.000000	
20.365146	1652.000000	
20.385653	1630.000000	
20.406161	1623.000000	
20.426669	1611.000000	
20.447176	1616.000000	
20.467684	1602.000000	
20.488192	1563.000000	
20.508700	1582.000000	
20.529207	1563.000000	
20.549715	1542.000000	
20.570223	1543.000000	
20.590730	1503.000000	
20.611238	1480.000000	
20.631746	1438.000000	
20.652253	1421.000000	
20.672761	1420.000000	
20.693269	1486.000000	
20.713777	1477.000000	
20.734284	1444.000000	
20.754792	1559.000000	
20.775300	1537.000000	
20.795807	1462.000000	
20.816315	1499.000000	
20.836823	1550.000000	
20.857330	1499.000000	
20.877838	1575.000000	
20.898346	1521.000000	
20.918854	1575.000000	
20.939361	1559.000000	
20.959869	1525.000000	
20.980377	1520.000000	
21.000884	1529.000000	
21.021392	1656.000000	
21.041900	1603.000000	
21.062407	1634.000000	
21.082915	1656.000000	
21.103423	1694.000000	
21.123931	1753.000000	
21.144438	1710.000000	
21.164946	1769.000000	
21.185454	1712.000000	
21.205961	1798.000000	
21.226469	1791.000000	
21.246977	1904.000000	
21.267484	1872.000000	
21.287992	1913.000000	
21.308500	1974.000000	
21.329008	1959.000000	
21.349515	1955.000000	
21.370023	2055.000000	
21.390531	2043.000000	
21.411038	2177.000000	
21.431546	2110.000000	
21.452054	1980.000000	
21.472562	2102.000000	
21.493069	2133.000000	
21.513577	2098.000000	
21.534085	2054.000000	
21.554592	2195.000000	
21.575100	2292.000000	
21.595608	2204.000000	
21.616115	2321.000000	
21.636623	2296.000000	
21.657131	2326.000000	
21.677639	2437.000000	
21.698146	2540.000000	
21.718654	2571.000000	
21.739162	2633.000000	
21.759669	2741.000000	
21.780177	2792.000000	
21.800685	2978.000000	
21.821192	3123.000000	
21.841700	3434.000000	
21.862208	3760.000000	
21.882716	3945.000000	
21.903223	4032.000000	
21.923731	4238.000000	
21.944239	4232.000000	
21.964746	4616.000000	
21.985254	4804.000000	
22.005762	4729.000000	
22.026269	5161.000000	
22.046777	5390.000000	
22.067285	5530.000000	
22.087793	5801.000000	
22.108300	6106.000000	
22.128808	6429.000000	
22.149316	6633.000000	
22.169823	6961.000000	
22.190331	7297.000000	
22.210839	7341.000000	
22.231346	7089.000000	
22.251854	6690.000000	
22.272362	5931.000000	
22.292870	5318.000000	
22.313377	4533.000000	
22.333885	4069.000000	
22.354393	3581.000000	
22.374900	3209.000000	
22.395408	3175.000000	
22.415916	2817.000000	
22.436423	2784.000000	
22.456931	2668.000000	
22.477439	2680.000000	
22.497947	2654.000000	
22.518454	2735.000000	
22.538962	2923.000000	
22.559470	2979.000000	
22.579977	3117.000000	
22.600485	3274.000000	
22.620993	3613.000000	
22.641500	3828.000000	
22.662008	4062.000000	
22.682516	4301.000000	
22.703024	4494.000000	
22.723531	4810.000000	
22.744039	5183.000000	
22.764547	5364.000000	
22.785054	5845.000000	
22.805562	6052.000000	
22.826070	6245.000000	
22.846577	6575.000000	
22.867085	7024.000000	
22.887593	7176.000000	
22.908101	7749.000000	
22.928608	8086.000000	
22.949116	8478.000000	
22.969624	8802.000000	
22.990131	9144.000000	
23.010639	9387.000000	
23.031147	9238.000000	
23.051655	8780.000000	
23.072162	8050.000000	
23.092670	7197.000000	
23.113178	6523.000000	
23.133685	5846.000000	
23.154193	5375.000000	
23.174701	4986.000000	
23.195208	4820.000000	
23.215716	4742.000000	
23.236224	4574.000000	
23.256732	4416.000000	
23.277239	4259.000000	
23.297747	4215.000000	
23.318255	4116.000000	
23.338762	3927.000000	
23.359270	3951.000000	
23.379778	4052.000000	
23.400285	4145.000000	
23.420793	4174.000000	
23.441301	4288.000000	
23.461809	4293.000000	
23.482316	4506.000000	
23.502824	4676.000000	
23.523332	4740.000000	
23.543839	5080.000000	
23.564347	5112.000000	
23.584855	5018.000000	
23.605362	4707.000000	
23.625870	4172.000000	
23.646378	3696.000000	
23.666886	3462.000000	
23.687393	3029.000000	
23.707901	2780.000000	
23.728409	2553.000000	
23.748916	2421.000000	
23.769424	2354.000000	
23.789932	2298.000000	
23.810439	2223.000000	
23.830947	2307.000000	
23.851455	2292.000000	
23.871963	2250.000000	
23.892470	2296.000000	
23.912978	2352.000000	
23.933486	2332.000000	
23.953993	2244.000000	
23.974501	2254.000000	
23.995009	2228.000000	
24.015516	2200.000000	
24.036024	2361.000000	
24.056532	2301.000000	
24.077040	2261.000000	
24.097547	2269.000000	
24.118055	2245.000000	
24.138563	2198.000000	
24.159070	2272.000000	
24.179578	2173.000000	
24.200086	2168.000000	
24.220593	2179.000000	
24.241101	2266.000000	
24.261609	2213.000000	
24.282117	2160.000000	
24.302624	2285.000000	
24.323132	2252.000000	
24.343640	2238.000000	
24.364147	2202.000000	
24.384655	2152.000000	
24.405163	2036.000000	
24.425670	2144.000000	
24.446178	2005.000000	
24.466686	2079.000000	
24.487194	2073.000000	
24.507701	2064.000000	
24.528209	2109.000000	
24.548717	1999.000000	
24.569224	2138.000000	
24.589732	2098.000000	
24.610240	2027.000000	
24.630748	2099.000000	
24.651255	2111.000000	
24.671763	2082.000000	
24.692271	2146.000000	
24.712778	2267.000000	
24.733286	2123.000000	
24.753794	2146.000000	
24.774301	2225.000000	
24.794809	2136.000000	
24.815317	2184.000000	
24.835825	2178.000000	
24.856332	2214.000000	
24.876840	2229.000000	
24.897348	2198.000000	
24.917855	2197.000000	
24.938363	2164.000000	
24.958871	2191.000000	
24.979378	2141.000000	
24.999886	2232.000000	
25.020394	2220.000000	
25.040902	2254.000000	
25.061409	2165.000000	
25.081917	2218.000000	
25.102425	2224.000000	
25.122932	2275.000000	
25.143440	2249.000000	
25.163948	2259.000000	
25.184455	2239.000000	
25.204963	2302.000000	
25.225471	2353.000000	
25.245979	2319.000000	
25.266486	2386.000000	
25.286994	2300.000000	
25.307502	2442.000000	
25.328009	2506.000000	
25.348517	2566.000000	
25.369025	2478.000000	
25.389532	2672.000000	
25.410040	2528.000000	
25.430548	2729.000000	
25.451056	2610.000000	
25.471563	2773.000000	
25.492071	2712.000000	
25.512579	2776.000000	
25.533086	2848.000000	
25.553594	2925.000000	
25.574102	2734.000000	
25.594609	2799.000000	
25.615117	2856.000000	
25.635625	2882.000000	
25.656133	2812.000000	
25.676640	2789.000000	
25.697148	2757.000000	
25.717656	2854.000000	
25.738163	2842.000000	
25.758671	2820.000000	
25.779179	2700.000000	
25.799686	2852.000000	
25.820194	2733.000000	
25.840702	2773.000000	
25.861210	2781.000000	
25.881717	2876.000000	
25.902225	2912.000000	
25.922733	3115.000000	
25.943240	2969.000000	
25.963748	3285.000000	
25.984256	3364.000000	
26.004763	3609.000000	
26.025271	3832.000000	
26.045779	3914.000000	
26.066287	4242.000000	
26.086794	4605.000000	
26.107302	4708.000000	
26.127810	5055.000000	
26.148317	5226.000000	
26.168825	5461.000000	
26.189333	5682.000000	
26.209841	6066.000000	
26.230348	6191.000000	
26.250856	6566.000000	
26.271364	6860.000000	
26.291871	7046.000000	
26.312379	7489.000000	
26.332887	7649.000000	
26.353394	8001.000000	
26.373902	8290.000000	
26.394410	8265.000000	
26.414918	8506.000000	
26.435425	8475.000000	
26.455933	7998.000000	
26.476441	7338.000000	
26.496948	6376.000000	
26.517456	5827.000000	
26.537964	5235.000000	
26.558471	4410.000000	
26.578979	4210.000000	
26.599487	3930.000000	
26.619995	3505.000000	
26.640502	3432.000000	
26.661010	3381.000000	
26.681518	3381.000000	
26.702025	3322.000000	
26.722533	3402.000000	
26.743041	3430.000000	
26.763548	3414.000000	
26.784056	3534.000000	
26.804564	3504.000000	
26.825072	3504.000000	
26.845579	3729.000000	
26.866087	3876.000000	
26.886595	4025.000000	
26.907102	4191.000000	
26.927610	4420.000000	
26.948118	4683.000000	
26.968625	4930.000000	
26.989133	5438.000000	
27.009641	5976.000000	
27.030149	6666.000000	
27.050656	7573.000000	
27.071164	8437.000000	
27.091672	9487.000000	
27.112179	10437.000000	
27.132687	11656.000000	
27.153195	12440.000000	
27.173702	13756.000000	
27.194210	14636.000000	
27.214718	15683.000000	
27.235226	16858.000000	
27.255733	17974.000000	
27.276241	19134.000000	
27.296749	20409.000000	
27.317256	21659.000000	
27.337764	22784.000000	
27.358272	24481.000000	
27.378779	25864.000000	
27.399287	27415.000000	
27.419795	28542.000000	
27.440303	30123.000000	
27.460810	30624.000000	
27.481318	30443.000000	
27.501826	28804.000000	
27.522333	26576.000000	
27.542841	23694.000000	
27.563349	21496.000000	
27.583856	19121.000000	
27.604364	17151.000000	
27.624872	15824.000000	
27.645380	15175.000000	
27.665887	14671.000000	
27.686395	14617.000000	
27.706903	14580.000000	
27.727410	14093.000000	
27.747918	14033.000000	
27.768426	13560.000000	
27.788934	12859.000000	
27.809441	11435.000000	
27.829949	10201.000000	
27.850457	9059.000000	
27.870964	7667.000000	
27.891472	6869.000000	
27.911980	5884.000000	
27.932487	5410.000000	
27.952995	4873.000000	
27.973503	4599.000000	
27.994011	4416.000000	
28.014518	4303.000000	
28.035026	4114.000000	
28.055534	4018.000000	
28.076041	3914.000000	
28.096549	3908.000000	
28.117057	3830.000000	
28.137564	3930.000000	
28.158072	3811.000000	
28.178580	3705.000000	
28.199088	3861.000000	
28.219595	3801.000000	
28.240103	3791.000000	
28.260611	3795.000000	
28.281118	3857.000000	
28.301626	3962.000000	
28.322134	3962.000000	
28.342641	3814.000000	
28.363149	3650.000000	
28.383657	3406.000000	
28.404165	3309.000000	
28.424672	2946.000000	
28.445180	2831.000000	
28.465688	2538.000000	
28.486195	2549.000000	
28.506703	2471.000000	
28.527211	2439.000000	
28.547718	2523.000000	
28.568226	2400.000000	
28.588734	2244.000000	
28.609242	2271.000000	
28.629749	2202.000000	
28.650257	2301.000000	
28.670765	2251.000000	
28.691272	2207.000000	
28.711780	2235.000000	
28.732288	2247.000000	
28.752795	2238.000000	
28.773303	2298.000000	
28.793811	2228.000000	
28.814319	2291.000000	
28.834826	2195.000000	
28.855334	2141.000000	
28.875842	2169.000000	
28.896349	2189.000000	
28.916857	2147.000000	
28.937365	2291.000000	
28.957872	2257.000000	
28.978380	2106.000000	
28.998888	2105.000000	
29.019396	2164.000000	
29.039903	2162.000000	
29.060411	2170.000000	
29.080919	2196.000000	
29.101426	2080.000000	
29.121934	2183.000000	
29.142442	2109.000000	
29.162949	2163.000000	
29.183457	2190.000000	
29.203965	2174.000000	
29.224473	2174.000000	
29.244980	2280.000000	
29.265488	2186.000000	
29.285996	2321.000000	
29.306503	2261.000000	
29.327011	2257.000000	
29.347519	2274.000000	
29.368027	2314.000000	
29.388534	2339.000000	
29.409042	2263.000000	
29.429550	2380.000000	
29.450057	2297.000000	
29.470565	2327.000000	
29.491073	2351.000000	
29.511580	2362.000000	
29.532088	2428.000000	
29.552596	2390.000000	
29.573104	2386.000000	
29.593611	2415.000000	
29.614119	2464.000000	
29.634627	2425.000000	
29.655134	2459.000000	
29.675642	2470.000000	
29.696150	2495.000000	
29.716657	2378.000000	
29.737165	2377.000000	
29.757673	2382.000000	
29.778181	2512.000000	
29.798688	2461.000000	
29.819196	2503.000000	
29.839704	2455.000000	
29.860211	2572.000000	
29.880719	2646.000000	
29.901227	2687.000000	
29.921734	2650.000000	
29.942242	2633.000000	
29.962750	2647.000000	
29.983258	2668.000000	
30.003765	2689.000000	
30.024273	2687.000000	
30.044781	2642.000000	
30.065288	2603.000000	
30.085796	2507.000000	
30.106304	2564.000000	
30.126811	2571.000000	
30.147319	2412.000000	
30.167827	2461.000000	
30.188335	2262.000000	
30.208842	2296.000000	
30.229350	2239.000000	
30.249858	2254.000000	
30.270365	2102.000000	
30.290873	2209.000000	
30.311381	2189.000000	
30.331888	2194.000000	
30.352396	2141.000000	
30.372904	2127.000000	
30.393412	2089.000000	
30.413919	2042.000000	
30.434427	2101.000000	
30.454935	2021.000000	
30.475442	2079.000000	
30.495950	2008.000000	
30.516458	2036.000000	
30.536965	1989.000000	
30.557473	2004.000000	
30.577981	1979.000000	
30.598489	1919.000000	
30.618996	1954.000000	
30.639504	1891.000000	
30.660012	1988.000000	
30.680519	1927.000000	
30.701027	1844.000000	
30.721535	1839.000000	
30.742042	1814.000000	
30.762550	1840.000000	
30.783058	1881.000000	
30.803566	1881.000000	
30.824073	1839.000000	
30.844581	1855.000000	
30.865089	1860.000000	
30.885596	1758.000000	
30.906104	1917.000000	
30.926612	1782.000000	
30.947120	1868.000000	
30.967627	1806.000000	
30.988135	1893.000000	
31.008643	1803.000000	
31.029150	1992.000000	
31.049658	1993.000000	
31.070166	1993.000000	
31.090673	2031.000000	
31.111181	2012.000000	
31.131689	2112.000000	
31.152197	2103.000000	
31.172704	2279.000000	
31.193212	2371.000000	
31.213720	2403.000000	
31.234227	2620.000000	
31.254735	2743.000000	
31.275243	2764.000000	
31.295750	2995.000000	
31.316258	3266.000000	
31.336766	3348.000000	
31.357274	3415.000000	
31.377781	3629.000000	
31.398289	3715.000000	
31.418797	3777.000000	
31.439304	4005.000000	
31.459812	4112.000000	
31.480320	4222.000000	
31.500827	4354.000000	
31.521335	4381.000000	
31.541843	4555.000000	
31.562351	4786.000000	
31.582858	4773.000000	
31.603366	4898.000000	
31.623874	5082.000000	
31.644381	5073.000000	
31.664889	4865.000000	
31.685397	4432.000000	
31.705904	3972.000000	
31.726412	3660.000000	
31.746920	3379.000000	
31.767428	3031.000000	
31.787935	2836.000000	
31.808443	2613.000000	
31.828951	2433.000000	
31.849458	2465.000000	
31.869966	2423.000000	
31.890474	2415.000000	
31.910981	2379.000000	
31.931489	2411.000000	
31.951997	2405.000000	
31.972505	2343.000000	
31.993012	2404.000000	
32.013520	2358.000000	
32.034028	2431.000000	
32.054535	2370.000000	
32.075043	2343.000000	
32.095551	2316.000000	
32.116058	2201.000000	
32.136566	2162.000000	
32.157074	2179.000000	
32.177582	2079.000000	
32.198089	2062.000000	
32.218597	2057.000000	
32.239105	2023.000000	
32.259612	2019.000000	
32.280120	2113.000000	
32.300628	2098.000000	
32.321135	2002.000000	
32.341643	2062.000000	
32.362151	2195.000000	
32.382659	2116.000000	
32.403166	2194.000000	
32.423674	2215.000000	
32.444182	2282.000000	
32.464689	2350.000000	
32.485197	2444.000000	
32.505705	2441.000000	
32.526213	2547.000000	
32.546720	2588.000000	
32.567228	2731.000000	
32.587736	2682.000000	
32.608243	2839.000000	
32.628751	2838.000000	
32.649259	2967.000000	
32.669766	2970.000000	
32.690274	3158.000000	
32.710782	3393.000000	
32.731290	3366.000000	
32.751797	3545.000000	
32.772305	3603.000000	
32.792813	3702.000000	
32.813320	3712.000000	
32.833828	3746.000000	
32.854336	3652.000000	
32.874843	3635.000000	
32.895351	3681.000000	
32.915859	3693.000000	
32.936367	3646.000000	
32.956874	3739.000000	
32.977382	3595.000000	
32.997890	3770.000000	
33.018397	3661.000000	
33.038905	3812.000000	
33.059413	3940.000000	
33.079920	3739.000000	
33.100428	3827.000000	
33.120936	3766.000000	
33.141444	3583.000000	
33.161951	3461.000000	
33.182459	3376.000000	
33.202967	3297.000000	
33.223474	3186.000000	
33.243982	3088.000000	
33.264490	2994.000000	
33.284997	3059.000000	
33.305505	3005.000000	
33.326013	2928.000000	
33.346521	2900.000000	
33.367028	3089.000000	
33.387536	2973.000000	
33.408044	3075.000000	
33.428551	3061.000000	
33.449059	3067.000000	
33.469567	3106.000000	
33.490074	3205.000000	
33.510582	3168.000000	
33.531090	3119.000000	
33.551598	3120.000000	
33.572105	3184.000000	
33.592613	3103.000000	
33.613121	3138.000000	
33.633628	3126.000000	
33.654136	2995.000000	
33.674644	2722.000000	
33.695151	2693.000000	
33.715659	2656.000000	
33.736167	2602.000000	
33.756675	2481.000000	
33.777182	2423.000000	
33.797690	2286.000000	
33.818198	2253.000000	
33.838705	2259.000000	
33.859213	2229.000000	
33.879721	2107.000000	
33.900228	2033.000000	
33.920736	2041.000000	
33.941244	2036.000000	
33.961752	1837.000000	
33.982259	1880.000000	
34.002767	1855.000000	
34.023275	1833.000000	
34.043782	1793.000000	
34.064290	1827.000000	
34.084798	1781.000000	
34.105306	1830.000000	
34.125813	1720.000000	
34.146321	1797.000000	
34.166829	1792.000000	
34.187336	1726.000000	
34.207844	1737.000000	
34.228352	1638.000000	
34.248859	1712.000000	
34.269367	1651.000000	
34.289875	1683.000000	
34.310383	1639.000000	
34.330890	1625.000000	
34.351398	1544.000000	
34.371906	1602.000000	
34.392413	1629.000000	
34.412921	1614.000000	
34.433429	1560.000000	
34.453936	1610.000000	
34.474444	1619.000000	
34.494952	1522.000000	
34.515460	1612.000000	
34.535967	1598.000000	
34.556475	1617.000000	
34.576983	1607.000000	
34.597490	1531.000000	
34.617998	1513.000000	
34.638506	1548.000000	
34.659013	1623.000000	
34.679521	1597.000000	
34.700029	1670.000000	
34.720537	1607.000000	
34.741044	1587.000000	
34.761552	1611.000000	
34.782060	1626.000000	
34.802567	1620.000000	
34.823075	1650.000000	
34.843583	1674.000000	
34.864090	1702.000000	
34.884598	1695.000000	
34.905106	1760.000000	
34.925614	1741.000000	
34.946121	1674.000000	
34.966629	1669.000000	
34.987137	1613.000000	
35.007644	1718.000000	
35.028152	1709.000000	
35.048660	1773.000000	
35.069167	1741.000000	
35.089675	1791.000000	
35.110183	1735.000000	
35.130691	1743.000000	
35.151198	1741.000000	
35.171706	1711.000000	
35.192214	1715.000000	
35.212721	1669.000000	
35.233229	1591.000000	
35.253737	1699.000000	
35.274244	1738.000000	
35.294752	1680.000000	
35.315260	1663.000000	
35.335768	1739.000000	
35.356275	1758.000000	
35.376783	1769.000000	
35.397291	1861.000000	
35.417798	1879.000000	
35.438306	1924.000000	
35.458814	1987.000000	
35.479321	2033.000000	
35.499829	1990.000000	
35.520337	2042.000000	
35.540845	2002.000000	
35.561352	2114.000000	
35.581860	2100.000000	
35.602368	2211.000000	
35.622875	2205.000000	
35.643383	2289.000000	
35.663891	2310.000000	
35.684399	2279.000000	
35.704906	2300.000000	
35.725414	2251.000000	
35.745922	2182.000000	
35.766429	2060.000000	
35.786937	2050.000000	
35.807445	2044.000000	
35.827952	1916.000000	
35.848460	1867.000000	
35.868968	1860.000000	
35.889476	1797.000000	
35.909983	1731.000000	
35.930491	1708.000000	
35.950999	1695.000000	
35.971506	1664.000000	
35.992014	1628.000000	
36.012522	1698.000000	
36.033029	1659.000000	
36.053537	1693.000000	
36.074045	1592.000000	
36.094553	1694.000000	
36.115060	1685.000000	
36.135568	1702.000000	
36.156076	1732.000000	
36.176583	1748.000000	
36.197091	1698.000000	
36.217599	1729.000000	
36.238106	1788.000000	
36.258614	1779.000000	
36.279122	1719.000000	
36.299630	1698.000000	
36.320137	1788.000000	
36.340645	1755.000000	
36.361153	1826.000000	
36.381660	1853.000000	
36.402168	1880.000000	
36.422676	1821.000000	
36.443183	1908.000000	
36.463691	1938.000000	
36.484199	2008.000000	
36.504707	1957.000000	
36.525214	1967.000000	
36.545722	2095.000000	
36.566230	2145.000000	
36.586737	2105.000000	
36.607245	2093.000000	
36.627753	2180.000000	
36.648260	2138.000000	
36.668768	2234.000000	
36.689276	2202.000000	
36.709784	2242.000000	
36.730291	2334.000000	
36.750799	2291.000000	
36.771307	2219.000000	
36.791814	2318.000000	
36.812322	2320.000000	
36.832830	2338.000000	
36.853337	2199.000000	
36.873845	2346.000000	
36.894353	2229.000000	
36.914861	2256.000000	
36.935368	2227.000000	
36.955876	2279.000000	
36.976384	2222.000000	
36.996891	2245.000000	
37.017399	2198.000000	
37.037907	2187.000000	
37.058414	2223.000000	
37.078922	2135.000000	
37.099430	2151.000000	
37.119938	2186.000000	
37.140445	2112.000000	
37.160953	2331.000000	
37.181461	2251.000000	
37.201968	2283.000000	
37.222476	2310.000000	
37.242984	2281.000000	
37.263492	2313.000000	
37.283999	2323.000000	
37.304507	2413.000000	
37.325015	2292.000000	
37.345522	2373.000000	
37.366030	2373.000000	
37.386538	2274.000000	
37.407045	2188.000000	
37.427553	2289.000000	
37.448061	2147.000000	
37.468569	2053.000000	
37.489076	2102.000000	
37.509584	2085.000000	
37.530092	2027.000000	
37.550599	2039.000000	
37.571107	1983.000000	
37.591615	1945.000000	
37.612122	1857.000000	
37.632630	1896.000000	
37.653138	1909.000000	
37.673646	1887.000000	
37.694153	1880.000000	
37.714661	1831.000000	
37.735169	1832.000000	
37.755676	1864.000000	
37.776184	1821.000000	
37.796692	1805.000000	
37.817199	1811.000000	
37.837707	1797.000000	
37.858215	1789.000000	
37.878723	1807.000000	
37.899230	1789.000000	
37.919738	1674.000000	
37.940246	1788.000000	
37.960753	1847.000000	
37.981261	1845.000000	
38.001769	1883.000000	
38.022276	1861.000000	
38.042784	1847.000000	
38.063292	1946.000000	
38.083800	1999.000000	
38.104307	2051.000000	
38.124815	2037.000000	
38.145323	2038.000000	
38.165830	2029.000000	
38.186338	2074.000000	
38.206846	2081.000000	
38.227353	2088.000000	
38.247861	2070.000000	
38.268369	2121.000000	
38.288877	2085.000000	
38.309384	2094.000000	
38.329892	2006.000000	
38.350400	2094.000000	
38.370907	1925.000000	
38.391415	1905.000000	
38.411923	1844.000000	
38.432430	1835.000000	
38.452938	1817.000000	
38.473446	1690.000000	
38.493954	1679.000000	
38.514461	1783.000000	
38.534969	1663.000000	
38.555477	1561.000000	
38.575984	1563.000000	
38.596492	1595.000000	
38.617000	1557.000000	
38.637507	1611.000000	
38.658015	1582.000000	
38.678523	1669.000000	
38.699031	1576.000000	
38.719538	1636.000000	
38.740046	1569.000000	
38.760554	1612.000000	
38.781061	1588.000000	
38.801569	1655.000000	
38.822077	1657.000000	
38.842585	1700.000000	
38.863092	1620.000000	
38.883600	1655.000000	
38.904108	1682.000000	
38.924615	1639.000000	
38.945123	1673.000000	
38.965631	1623.000000	
38.986138	1680.000000	
39.006646	1657.000000	
39.027154	1686.000000	
39.047662	1760.000000	
39.068169	1802.000000	
39.088677	1905.000000	
39.109185	1855.000000	
39.129692	1924.000000	
39.150200	1920.000000	
39.170708	1969.000000	
39.191215	2050.000000	
39.211723	2103.000000	
39.232231	2215.000000	
39.252739	2171.000000	
39.273246	2193.000000	
39.293754	2125.000000	
39.314262	2287.000000	
39.334769	2238.000000	
39.355277	2293.000000	
39.375785	2265.000000	
39.396292	2378.000000	
39.416800	2251.000000	
39.437308	2377.000000	
39.457816	2384.000000	
39.478323	2370.000000	
39.498831	2226.000000	
39.519339	2191.000000	
39.539846	2022.000000	
39.560354	2014.000000	
39.580862	1986.000000	
39.601369	1842.000000	
39.621877	1903.000000	
39.642385	1825.000000	
39.662893	1677.000000	
39.683400	1694.000000	
39.703908	1726.000000	
39.724416	1730.000000	
39.744923	1586.000000	
39.765431	1670.000000	
39.785939	1574.000000	
39.806446	1606.000000	
39.826954	1657.000000	
39.847462	1616.000000	
39.867970	1637.000000	
39.888477	1720.000000	
39.908985	1707.000000	
39.929493	1689.000000	
39.950000	1712.000000	
39.970508	1810.000000	
39.991016	1746.000000	
40.011523	1817.000000	
40.032031	1863.000000	
40.052539	1953.000000	
40.073047	2002.000000	
40.093554	2008.000000	
40.114062	2059.000000	
40.134570	2087.000000	
40.155077	2209.000000	
40.175585	2211.000000	
40.196093	2255.000000	
40.216600	2366.000000	
40.237108	2451.000000	
40.257616	2485.000000	
40.278124	2517.000000	
40.298631	2543.000000	
40.319139	2600.000000	
40.339647	2520.000000	
40.360154	2634.000000	
40.380662	2531.000000	
40.401170	2626.000000	
40.421678	2637.000000	
40.442185	2625.000000	
40.462693	2529.000000	
40.483201	2490.000000	
40.503708	2452.000000	
40.524216	2383.000000	
40.544724	2275.000000	
40.565231	2258.000000	
40.585739	2187.000000	
40.606247	2215.000000	
40.626755	2099.000000	
40.647262	2088.000000	
40.667770	2027.000000	
40.688278	2067.000000	
40.708785	1973.000000	
40.729293	1935.000000	
40.749801	1991.000000	
40.770308	1979.000000	
40.790816	1983.000000	
40.811324	1963.000000	
40.831832	2038.000000	
40.852339	2049.000000	
40.872847	1985.000000	
40.893355	2057.000000	
40.913862	2107.000000	
40.934370	2093.000000	
40.954878	2139.000000	
40.975385	2030.000000	
40.995893	2103.000000	
41.016401	2163.000000	
41.036909	2156.000000	
41.057416	2107.000000	
41.077924	2037.000000	
41.098432	1968.000000	
41.118939	1999.000000	
41.139447	2002.000000	
41.159955	1955.000000	
41.180462	1919.000000	
41.200970	1905.000000	
41.221478	1932.000000	
41.241986	1914.000000	
41.262493	1869.000000	
41.283001	1912.000000	
41.303509	1970.000000	
41.324016	1950.000000	
41.344524	1830.000000	
41.365032	1873.000000	
41.385539	1964.000000	
41.406047	1911.000000	
41.426555	1878.000000	
41.447063	1861.000000	
41.467570	1835.000000	
41.488078	1831.000000	
41.508586	1802.000000	
41.529093	1783.000000	
41.549601	1803.000000	
41.570109	1785.000000	
41.590616	1658.000000	
41.611124	1728.000000	
41.631632	1695.000000	
41.652140	1721.000000	
41.672647	1623.000000	
41.693155	1627.000000	
41.713663	1626.000000	
41.734170	1612.000000	
41.754678	1565.000000	
41.775186	1535.000000	
41.795693	1490.000000	
41.816201	1479.000000	
41.836709	1421.000000	
41.857217	1468.000000	
41.877724	1387.000000	
41.898232	1401.000000	
41.918740	1405.000000	
41.939247	1352.000000	
41.959755	1427.000000	
41.980263	1377.000000	
42.000771	1363.000000	
42.021278	1394.000000	
42.041786	1317.000000	
42.062294	1345.000000	
42.082801	1240.000000	
42.103309	1394.000000	
42.123817	1325.000000	
42.144324	1257.000000	
42.164832	1297.000000	
42.185340	1319.000000	
42.205848	1349.000000	
42.226355	1281.000000	
42.246863	1303.000000	
42.267371	1302.000000	
42.287878	1274.000000	
42.308386	1369.000000	
42.328894	1330.000000	
42.349401	1361.000000	
42.369909	1290.000000	
42.390417	1239.000000	
42.410925	1320.000000	
42.431432	1300.000000	
42.451940	1376.000000	
42.472448	1302.000000	
42.492955	1252.000000	
42.513463	1326.000000	
42.533971	1340.000000	
42.554478	1249.000000	
42.574986	1329.000000	
42.595494	1357.000000	
42.616002	1332.000000	
42.636509	1352.000000	
42.657017	1415.000000	
42.677525	1332.000000	
42.698032	1379.000000	
42.718540	1352.000000	
42.739048	1398.000000	
42.759555	1406.000000	
42.780063	1457.000000	
42.800571	1475.000000	
42.821079	1510.000000	
42.841586	1395.000000	
42.862094	1473.000000	
42.882602	1429.000000	
42.903109	1396.000000	
42.923617	1441.000000	
42.944125	1493.000000	
42.964632	1404.000000	
42.985140	1392.000000	
43.005648	1468.000000	
43.026156	1379.000000	
43.046663	1420.000000	
43.067171	1447.000000	
43.087679	1416.000000	
43.108186	1414.000000	
43.128694	1360.000000	
43.149202	1323.000000	
43.169709	1433.000000	
43.190217	1372.000000	
43.210725	1340.000000	
43.231233	1351.000000	
43.251740	1346.000000	
43.272248	1354.000000	
43.292756	1335.000000	
43.313263	1348.000000	
43.333771	1366.000000	
43.354279	1367.000000	
43.374786	1376.000000	
43.395294	1342.000000	
43.415802	1335.000000	
43.436310	1383.000000	
43.456817	1327.000000	
43.477325	1417.000000	
43.497833	1456.000000	
43.518340	1359.000000	
43.538848	1416.000000	
43.559356	1393.000000	
43.579864	1430.000000	
43.600371	1433.000000	
43.620879	1367.000000	
43.641387	1387.000000	
43.661894	1329.000000	
43.682402	1410.000000	
43.702910	1392.000000	
43.723417	1414.000000	
43.743925	1366.000000	
43.764433	1386.000000	
43.784941	1317.000000	
43.805448	1399.000000	
43.825956	1398.000000	
43.846464	1442.000000	
43.866971	1373.000000	
43.887479	1381.000000	
43.907987	1373.000000	
43.928494	1477.000000	
43.949002	1399.000000	
43.969510	1482.000000	
43.990018	1426.000000	
44.010525	1531.000000	
44.031033	1398.000000	
44.051541	1426.000000	
44.072048	1491.000000	
44.092556	1478.000000	
44.113064	1496.000000	
44.133571	1448.000000	
44.154079	1467.000000	
44.174587	1538.000000	
44.195095	1514.000000	
44.215602	1529.000000	
44.236110	1513.000000	
44.256618	1444.000000	
44.277125	1499.000000	
44.297633	1501.000000	
44.318141	1445.000000	
44.338648	1435.000000	
44.359156	1432.000000	
44.379664	1457.000000	
44.400172	1455.000000	
44.420679	1407.000000	
44.441187	1403.000000	
44.461695	1397.000000	
44.482202	1417.000000	
44.502710	1359.000000	
44.523218	1380.000000	
44.543725	1379.000000	
44.564233	1295.000000	
44.584741	1378.000000	
44.605249	1444.000000	
44.625756	1412.000000	
44.646264	1371.000000	
44.666772	1412.000000	
44.687279	1367.000000	
44.707787	1332.000000	
44.728295	1400.000000	
44.748802	1364.000000	
44.769310	1352.000000	
44.789818	1311.000000	
44.810326	1398.000000	
44.830833	1410.000000	
44.851341	1360.000000	
44.871849	1374.000000	
44.892356	1396.000000	
44.912864	1426.000000	
44.933372	1489.000000	
44.953879	1527.000000	
44.974387	1606.000000	
44.994895	1647.000000	
45.015403	1698.000000	
45.035910	1760.000000	
45.056418	1823.000000	
45.076926	1924.000000	
45.097433	1927.000000	
45.117941	1998.000000	
45.138449	2012.000000	
45.158957	2099.000000	
45.179464	2057.000000	
45.199972	2247.000000	
45.220480	2217.000000	
45.240987	2232.000000	
45.261495	2388.000000	
45.282003	2317.000000	
45.302510	2407.000000	
45.323018	2426.000000	
45.343526	2471.000000	
45.364034	2581.000000	
45.384541	2556.000000	
45.405049	2400.000000	
45.425557	2326.000000	
45.446064	2049.000000	
45.466572	2000.000000	
45.487080	1936.000000	
45.507587	1865.000000	
45.528095	1786.000000	
45.548603	1762.000000	
45.569111	1595.000000	
45.589618	1588.000000	
45.610126	1567.000000	
45.630634	1574.000000	
45.651141	1600.000000	
45.671649	1480.000000	
45.692157	1474.000000	
45.712664	1553.000000	
45.733172	1554.000000	
45.753680	1572.000000	
45.774188	1636.000000	
45.794695	1532.000000	
45.815203	1499.000000	
45.835711	1564.000000	
45.856218	1575.000000	
45.876726	1586.000000	
45.897234	1522.000000	
45.917741	1594.000000	
45.938249	1570.000000	
45.958757	1495.000000	
45.979265	1488.000000	
45.999772	1466.000000	
46.020280	1491.000000	
46.040788	1485.000000	
46.061295	1478.000000	
46.081803	1460.000000	
46.102311	1478.000000	
46.122818	1487.000000	
46.143326	1509.000000	
46.163834	1422.000000	
46.184342	1464.000000	
46.204849	1426.000000	
46.225357	1490.000000	
46.245865	1465.000000	
46.266372	1445.000000	
46.286880	1382.000000	
46.307388	1475.000000	
46.327895	1377.000000	
46.348403	1437.000000	
46.368911	1472.000000	
46.389419	1471.000000	
46.409926	1439.000000	
46.430434	1423.000000	
46.450942	1347.000000	
46.471449	1355.000000	
46.491957	1378.000000	
46.512465	1358.000000	
46.532972	1361.000000	
46.553480	1285.000000	
46.573988	1335.000000	
46.594496	1353.000000	
46.615003	1312.000000	
46.635511	1370.000000	
46.656019	1373.000000	
46.676526	1371.000000	
46.697034	1320.000000	
46.717542	1351.000000	
46.738050	1387.000000	
46.758557	1331.000000	
46.779065	1379.000000	
46.799573	1380.000000	
46.820080	1343.000000	
46.840588	1393.000000	
46.861096	1323.000000	
46.881603	1381.000000	
46.902111	1372.000000	
46.922619	1370.000000	
46.943127	1289.000000	
46.963634	1359.000000	
46.984142	1404.000000	
47.004650	1305.000000	
47.025157	1345.000000	
47.045665	1286.000000	
47.066173	1239.000000	
47.086680	1282.000000	
47.107188	1205.000000	
47.127696	1279.000000	
47.148204	1269.000000	
47.168711	1188.000000	
47.189219	1223.000000	
47.209727	1263.000000	
47.230234	1319.000000	
47.250742	1260.000000	
47.271250	1296.000000	
47.291757	1257.000000	
47.312265	1231.000000	
47.332773	1259.000000	
47.353281	1259.000000	
47.373788	1332.000000	
47.394296	1294.000000	
47.414804	1239.000000	
47.435311	1310.000000	
47.455819	1317.000000	
47.476327	1255.000000	
47.496834	1313.000000	
47.517342	1318.000000	
47.537850	1303.000000	
47.558358	1345.000000	
47.578865	1301.000000	
47.599373	1280.000000	
47.619881	1281.000000	
47.640388	1296.000000	
47.660896	1311.000000	
47.681404	1268.000000	
47.701911	1353.000000	
47.722419	1262.000000	
47.742927	1296.000000	
47.763435	1209.000000	
47.783942	1252.000000	
47.804450	1282.000000	
47.824958	1285.000000	
47.845465	1194.000000	
47.865973	1222.000000	
47.886481	1147.000000	
47.906988	1287.000000	
47.927496	1170.000000	
47.948004	1236.000000	
47.968512	1188.000000	
47.989019	1244.000000	
48.009527	1176.000000	
48.030035	1207.000000	
48.050542	1199.000000	
48.071050	1199.000000	
48.091558	1200.000000	
48.112065	1251.000000	
48.132573	1207.000000	
48.153081	1192.000000	
48.173589	1231.000000	
48.194096	1218.000000	
48.214604	1210.000000	
48.235112	1240.000000	
48.255619	1247.000000	
48.276127	1275.000000	
48.296635	1287.000000	
48.317143	1213.000000	
48.337650	1249.000000	
48.358158	1292.000000	
48.378666	1335.000000	
48.399173	1348.000000	
48.419681	1392.000000	
48.440189	1374.000000	
48.460696	1376.000000	
48.481204	1352.000000	
48.501712	1375.000000	
48.522220	1410.000000	
48.542727	1399.000000	
48.563235	1423.000000	
48.583743	1473.000000	
48.604250	1455.000000	
48.624758	1480.000000	
48.645266	1543.000000	
48.665773	1484.000000	
48.686281	1568.000000	
48.706789	1555.000000	
48.727297	1548.000000	
48.747804	1541.000000	
48.768312	1581.000000	
48.788820	1619.000000	
48.809327	1595.000000	
48.829835	1525.000000	
48.850343	1520.000000	
48.870850	1466.000000	
48.891358	1467.000000	
48.911866	1423.000000	
48.932374	1496.000000	
48.952881	1458.000000	
48.973389	1438.000000	
48.993897	1420.000000	
49.014404	1481.000000	
49.034912	1432.000000	
49.055420	1361.000000	
49.075927	1420.000000	
49.096435	1411.000000	
49.116943	1362.000000	
49.137451	1421.000000	
49.157958	1429.000000	
49.178466	1405.000000	
49.198974	1422.000000	
49.219481	1360.000000	
49.239989	1445.000000	
49.260497	1483.000000	
49.281004	1561.000000	
49.301512	1539.000000	
49.322020	1528.000000	
49.342528	1578.000000	
49.363035	1695.000000	
49.383543	1733.000000	
49.404051	1799.000000	
49.424558	1820.000000	
49.445066	1802.000000	
49.465574	1910.000000	
49.486081	1976.000000	
49.506589	2088.000000	
49.527097	2206.000000	
49.547605	2170.000000	
49.568112	2204.000000	
49.588620	2276.000000	
49.609128	2364.000000	
49.629635	2443.000000	
49.650143	2453.000000	
49.670651	2451.000000	
49.691158	2621.000000	
49.711666	2463.000000	
49.732174	2504.000000	
49.752682	2519.000000	
49.773189	2444.000000	
49.793697	2545.000000	
49.814205	2378.000000	
49.834712	2363.000000	
49.855220	2281.000000	
49.875728	2241.000000	
49.896236	2238.000000	
49.916743	2048.000000	
49.937251	2019.000000	
49.957759	2022.000000	
49.978266	1926.000000	
49.998774	1928.000000	
50.019282	1800.000000	
50.039789	1814.000000	
50.060297	1804.000000	
50.080805	1716.000000	
50.101313	1754.000000	
50.121820	1647.000000	
50.142328	1583.000000	
50.162836	1560.000000	
50.183343	1484.000000	
50.203851	1544.000000	
50.224359	1540.000000	
50.244866	1505.000000	
50.265374	1481.000000	
50.285882	1427.000000	
50.306390	1503.000000	
50.326897	1423.000000	
50.347405	1404.000000	
50.367913	1437.000000	
50.388420	1377.000000	
50.408928	1351.000000	
50.429436	1319.000000	
50.449943	1317.000000	
50.470451	1342.000000	
50.490959	1377.000000	
50.511467	1318.000000	
50.531974	1252.000000	
50.552482	1314.000000	
50.572990	1312.000000	
50.593497	1268.000000	
50.614005	1205.000000	
50.634513	1221.000000	
50.655020	1273.000000	
50.675528	1238.000000	
50.696036	1238.000000	
50.716544	1244.000000	
50.737051	1368.000000	
50.757559	1259.000000	
50.778067	1300.000000	
50.798574	1252.000000	
50.819082	1259.000000	
50.839590	1349.000000	
50.860097	1356.000000	
50.880605	1265.000000	
50.901113	1365.000000	
50.921621	1340.000000	
50.942128	1416.000000	
50.962636	1384.000000	
50.983144	1424.000000	
51.003651	1533.000000	
51.024159	1494.000000	
51.044667	1516.000000	
51.065174	1611.000000	
51.085682	1574.000000	
51.106190	1546.000000	
51.126698	1530.000000	
51.147205	1631.000000	
51.167713	1523.000000	
51.188221	1630.000000	
51.208728	1590.000000	
51.229236	1601.000000	
51.249744	1608.000000	
51.270251	1551.000000	
51.290759	1625.000000	
51.311267	1606.000000	
51.331775	1561.000000	
51.352282	1578.000000	
51.372790	1491.000000	
51.393298	1563.000000	
51.413805	1530.000000	
51.434313	1524.000000	
51.454821	1487.000000	
51.475329	1504.000000	
51.495836	1489.000000	
51.516344	1537.000000	
51.536852	1593.000000	
51.557359	1439.000000	
51.577867	1426.000000	
51.598375	1440.000000	
51.618882	1432.000000	
51.639390	1379.000000	
51.659898	1340.000000	
51.680406	1407.000000	
51.700913	1407.000000	
51.721421	1309.000000	
51.741929	1354.000000	
51.762436	1374.000000	
51.782944	1413.000000	
51.803452	1333.000000	
51.823959	1279.000000	
51.844467	1305.000000	
51.864975	1316.000000	
51.885483	1415.000000	
51.905990	1365.000000	
51.926498	1334.000000	
51.947006	1357.000000	
51.967513	1439.000000	
51.988021	1319.000000	
52.008529	1319.000000	
52.029036	1326.000000	
52.049544	1340.000000	
52.070052	1293.000000	
52.090560	1356.000000	
52.111067	1324.000000	
52.131575	1233.000000	
52.152083	1290.000000	
52.172590	1244.000000	
52.193098	1265.000000	
52.213606	1285.000000	
52.234113	1201.000000	
52.254621	1232.000000	
52.275129	1193.000000	
52.295637	1255.000000	
52.316144	1218.000000	
52.336652	1164.000000	
52.357160	1208.000000	
52.377667	1178.000000	
52.398175	1202.000000	
52.418683	1163.000000	
52.439190	1132.000000	
52.459698	1144.000000	
52.480206	1204.000000	
52.500714	1220.000000	
52.521221	1135.000000	
52.541729	1157.000000	
52.562237	1155.000000	
52.582744	1110.000000	
52.603252	1115.000000	
52.623760	1113.000000	
52.644267	1117.000000	
52.664775	1146.000000	
52.685283	1157.000000	
52.705791	1115.000000	
52.726298	1060.000000	
52.746806	1121.000000	
52.767314	1104.000000	
52.787821	1108.000000	
52.808329	1087.000000	
52.828837	1117.000000	
52.849344	1084.000000	
52.869852	1138.000000	
52.890360	1062.000000	
52.910868	1120.000000	
52.931375	1094.000000	
52.951883	1091.000000	
52.972391	1013.000000	
52.992898	1084.000000	
53.013406	1074.000000	
53.033914	1079.000000	
53.054422	1110.000000	
53.074929	1078.000000	
53.095437	1080.000000	
53.115945	1038.000000	
53.136452	1078.000000	
53.156960	1137.000000	
53.177468	1100.000000	
53.197975	1092.000000	
53.218483	1113.000000	
53.238991	1097.000000	
53.259499	1075.000000	
53.280006	1101.000000	
53.300514	1164.000000	
53.321022	1098.000000	
53.341529	1075.000000	
53.362037	1103.000000	
53.382545	1099.000000	
53.403052	1107.000000	
53.423560	1080.000000	
53.444068	1090.000000	
53.464576	1090.000000	
53.485083	1175.000000	
53.505591	1108.000000	
53.526099	1080.000000	
53.546606	1135.000000	
53.567114	1119.000000	
53.587622	1182.000000	
53.608129	1133.000000	
53.628637	1158.000000	
53.649145	1169.000000	
53.669653	1154.000000	
53.690160	1128.000000	
53.710668	1185.000000	
53.731176	1230.000000	
53.751683	1089.000000	
53.772191	1181.000000	
53.792699	1167.000000	
53.813206	1130.000000	
53.833714	1105.000000	
53.854222	1052.000000	
53.874730	1185.000000	
53.895237	1182.000000	
53.915745	1070.000000	
53.936253	1092.000000	
53.956760	1136.000000	
53.977268	1170.000000	
53.997776	1155.000000	
54.018283	1149.000000	
54.038791	1182.000000	
54.059299	1157.000000	
54.079807	1165.000000	
54.100314	1087.000000	
54.120822	1169.000000	
54.141330	1186.000000	
54.161837	1160.000000	
54.182345	1176.000000	
54.202853	1206.000000	
54.223360	1243.000000	
54.243868	1166.000000	
54.264376	1152.000000	
54.284884	1180.000000	
54.305391	1212.000000	
54.325899	1240.000000	
54.346407	1163.000000	
54.366914	1251.000000	
54.387422	1181.000000	
54.407930	1196.000000	
54.428437	1184.000000	
54.448945	1226.000000	
54.469453	1239.000000	
54.489961	1154.000000	
54.510468	1131.000000	
54.530976	1161.000000	
54.551484	1141.000000	
54.571991	1142.000000	
54.592499	1154.000000	
54.613007	1061.000000	
54.633515	1039.000000	
54.654022	1148.000000	
54.674530	1065.000000	
54.695038	1044.000000	
54.715545	1104.000000	
54.736053	1062.000000	
54.756561	1068.000000	
54.777068	1091.000000	
54.797576	1153.000000	
54.818084	1086.000000	
54.838592	1137.000000	
54.859099	1117.000000	
54.879607	1148.000000	
54.900115	1128.000000	
54.920622	1066.000000	
54.941130	1082.000000	
54.961638	1064.000000	
54.982145	1115.000000	
55.002653	1117.000000	
55.023161	1150.000000	
55.043669	1119.000000	
55.064176	1184.000000	
55.084684	1206.000000	
55.105192	1164.000000	
55.125699	1207.000000	
55.146207	1171.000000	
55.166715	1221.000000	
55.187222	1196.000000	
55.207730	1209.000000	
55.228238	1250.000000	
55.248746	1209.000000	
55.269253	1257.000000	
55.289761	1311.000000	
55.310269	1232.000000	
55.330776	1301.000000	
55.351284	1240.000000	
55.371792	1288.000000	
55.392299	1261.000000	
55.412807	1323.000000	
55.433315	1392.000000	
55.453823	1366.000000	
55.474330	1342.000000	
55.494838	1315.000000	
55.515346	1358.000000	
55.535853	1346.000000	
55.556361	1353.000000	
55.576869	1406.000000	
55.597376	1292.000000	
55.617884	1466.000000	
55.638392	1392.000000	
55.658900	1320.000000	
55.679407	1308.000000	
55.699915	1357.000000	
55.720423	1315.000000	
55.740930	1242.000000	
55.761438	1269.000000	
55.781946	1263.000000	
55.802453	1236.000000	
55.822961	1236.000000	
55.843469	1221.000000	
55.863977	1208.000000	
55.884484	1160.000000	
55.904992	1204.000000	
55.925500	1211.000000	
55.946007	1204.000000	
55.966515	1193.000000	
55.987023	1171.000000	
56.007530	1259.000000	
56.028038	1251.000000	
56.048546	1300.000000	
56.069054	1231.000000	
56.089561	1223.000000	
56.110069	1293.000000	
56.130577	1245.000000	
56.151084	1274.000000	
56.171592	1365.000000	
56.192100	1297.000000	
56.212608	1389.000000	
56.233115	1325.000000	
56.253623	1357.000000	
56.274131	1421.000000	
56.294638	1390.000000	
56.315146	1414.000000	
56.335654	1395.000000	
56.356161	1546.000000	
56.376669	1461.000000	
56.397177	1496.000000	
56.417685	1535.000000	
56.438192	1405.000000	
56.458700	1460.000000	
56.479208	1421.000000	
56.499715	1356.000000	
56.520223	1498.000000	
56.540731	1388.000000	
56.561238	1394.000000	
56.581746	1345.000000	
56.602254	1350.000000	
56.622762	1404.000000	
56.643269	1370.000000	
56.663777	1356.000000	
56.684285	1317.000000	
56.704792	1283.000000	
56.725300	1332.000000	
56.745808	1330.000000	
56.766315	1368.000000	
56.786823	1295.000000	
56.807331	1299.000000	
56.827839	1258.000000	
56.848346	1213.000000	
56.868854	1222.000000	
56.889362	1180.000000	
56.909869	1187.000000	
56.930377	1188.000000	
56.950885	1108.000000	
56.971392	1093.000000	
56.991900	1132.000000	
57.012408	1042.000000	
57.032916	1069.000000	
57.053423	983.000000	
57.073931	980.000000	
57.094439	1009.000000	
57.114946	1100.000000	
57.135454	1035.000000	
57.155962	1016.000000	
57.176469	1027.000000	
57.196977	1026.000000	
57.217485	1037.000000	
57.237993	998.000000	
57.258500	1001.000000	
57.279008	1070.000000	
57.299516	999.000000	
57.320023	1001.000000	
57.340531	1029.000000	
57.361039	1045.000000	
57.381546	1057.000000	
57.402054	1031.000000	
57.422562	969.000000	
57.443070	1008.000000	
57.463577	1029.000000	
57.484085	972.000000	
57.504593	1029.000000	
57.525100	1018.000000	
57.545608	1025.000000	
57.566116	978.000000	
57.586623	1075.000000	
57.607131	1055.000000	
57.627639	1045.000000	
57.648147	997.000000	
57.668654	1069.000000	
57.689162	1089.000000	
57.709670	1088.000000	
57.730177	1067.000000	
57.750685	1078.000000	
57.771193	1133.000000	
57.791701	1082.000000	
57.812208	1124.000000	
57.832716	1116.000000	
57.853224	1134.000000	
57.873731	1106.000000	
57.894239	1241.000000	
57.914747	1212.000000	
57.935254	1134.000000	
57.955762	1137.000000	
57.976270	1158.000000	
57.996778	1205.000000	
58.017285	1183.000000	
58.037793	1217.000000	
58.058301	1226.000000	
58.078808	1199.000000	
58.099316	1167.000000	
58.119824	1175.000000	
58.140331	1252.000000	
58.160839	1147.000000	
58.181347	1166.000000	
58.201855	1125.000000	
58.222362	1136.000000	
58.242870	1145.000000	
58.263378	1139.000000	
58.283885	1071.000000	
58.304393	1126.000000	
58.324901	1074.000000	
58.345408	1135.000000	
58.365916	1055.000000	
58.386424	1087.000000	
58.406932	1083.000000	
58.427439	1101.000000	
58.447947	1091.000000	
58.468455	1121.000000	
58.488962	1108.000000	
58.509470	1154.000000	
58.529978	1178.000000	
58.550485	1090.000000	
58.570993	1124.000000	
58.591501	1221.000000	
58.612009	1111.000000	
58.632516	1145.000000	
58.653024	1129.000000	
58.673532	1139.000000	
58.694039	1179.000000	
58.714547	1172.000000	
58.735055	1139.000000	
58.755562	1104.000000	
58.776070	1122.000000	
58.796578	1118.000000	
58.817086	1097.000000	
58.837593	1126.000000	
58.858101	1092.000000	
58.878609	1093.000000	
58.899116	1128.000000	
58.919624	1037.000000	
58.940132	1062.000000	
58.960639	1046.000000	
58.981147	987.000000	
59.001655	977.000000	
59.022163	1046.000000	
59.042670	1035.000000	
59.063178	981.000000	
59.083686	958.000000	
59.104193	1015.000000	
59.124701	1003.000000	
59.145209	990.000000	
59.165716	924.000000	
59.186224	965.000000	
59.206732	923.000000	
59.227240	890.000000	
59.247747	997.000000	
59.268255	967.000000	
59.288763	945.000000	
59.309270	994.000000	
59.329778	941.000000	
59.350286	943.000000	
59.370794	953.000000	
59.391301	953.000000	
59.411809	927.000000	
59.432317	907.000000	
59.452824	941.000000	
59.473332	895.000000	
59.493840	932.000000	
59.514347	922.000000	
59.534855	888.000000	
59.555363	961.000000	
59.575871	969.000000	
59.596378	932.000000	
59.616886	948.000000	
59.637394	933.000000	
59.657901	903.000000	
59.678409	891.000000	
59.698917	926.000000	
59.719424	955.000000	
59.739932	875.000000	
59.760440	985.000000	
59.780948	960.000000	
59.801455	985.000000	
59.821963	949.000000	
59.842471	962.000000	
59.862978	915.000000	
59.883486	958.000000	
59.903994	977.000000	
59.924501	994.000000	
59.945009	958.000000	
59.965517	982.000000	
59.986025	1002.000000	
60.006532	990.000000	
