;content of C:\2026\IF\Dr-IVAN\26-02-2026\FTN3.raw - (Diffrac Plus V4 file)
_FILEVERSION = 3
_SAMPLE = FTN3
_+SAMPLE
_USER = Lab Manager
_GONIOMETER_CODE = 21
_STAGE_CODE = 7
; Goniometer : D8 theta/theta, stage : Chi drive
_SAMPLE_CHANGER_CODE = 0
_ATTACHMENTS_CODE = 0
_GONIOMETER_RADIUS = 280
_SOLLER_SLITS = 2
_FIXED_DETSLIT = 6
_MONOCHROMATOR = 0
; Incident beam monochromator : None
_BETA_FILTER = N
_ANALYZER_CODE = 0
; Received beam analyzer : None
_DATEMEASURED = 25-Feb-2026 15:10:55
_RUNTIME = 1737.89
_WL_UNIT = A
_WL1 = 1.540600
_WL2 = 1.544390
_WL3 = 1.392220
_WLRATIO = 0.500000
_ANODE = Cu
_V4_INF_USER = Lab Manager
_V4_INF_SAMPLEID = FTN3
_V4_INF_CREATOR = BrmlToV4Converter
_V4_INF_CREATOR_VERSION = 7.3.1.0

; Data for range 1
_DRIVE = COUPLED
_STEPTIME = 115.2
_STEPSIZE = 0.020508
_STEPMODE = C
_START = 4.000000
_THETA = 2.000000
_2THETA = 4.000000
_PHI = 99.000000
_DIVERGENCE = 0.379996
_DETECTORSLIT = out
_TIMESTARTED = 0
_ROTATION_SPEED = 15
_KV = 40
_MA = 35
_RANGE_WL = 1.541800
_3DPLANE = 0
_V4_PSD2THETA = 9999.000000
_V4_PSDCHANNEL1 = 0
_V4_PSDAPERTURE = 2.953109
_V4_PSDTYPE = 5
_V4_PSDFIXED = 0
_V4_COUNTERS_MASK = 1
_V4_DRIVES_MASK = 0
_V4_ENCODERS_MASK = 0
_2THETACOUNTS = 1
; 2THETA	Cnt2_D1	
4.000000	399.000000	
4.020508	444.000000	
4.041015	443.000000	
4.061523	433.000000	
4.082031	471.000000	
4.102539	448.000000	
4.123046	399.000000	
4.143554	407.000000	
4.164062	436.000000	
4.184569	397.000000	
4.205077	409.000000	
4.225585	415.000000	
4.246092	390.000000	
4.266600	400.000000	
4.287108	388.000000	
4.307616	384.000000	
4.328123	393.000000	
4.348631	361.000000	
4.369139	414.000000	
4.389646	339.000000	
4.410154	417.000000	
4.430662	363.000000	
4.451169	396.000000	
4.471677	381.000000	
4.492185	388.000000	
4.512693	361.000000	
4.533200	378.000000	
4.553708	372.000000	
4.574216	374.000000	
4.594723	350.000000	
4.615231	335.000000	
4.635739	362.000000	
4.656246	373.000000	
4.676754	370.000000	
4.697262	380.000000	
4.717770	376.000000	
4.738277	358.000000	
4.758785	370.000000	
4.779293	404.000000	
4.799800	347.000000	
4.820308	347.000000	
4.840816	340.000000	
4.861323	348.000000	
4.881831	375.000000	
4.902339	370.000000	
4.922847	346.000000	
4.943354	368.000000	
4.963862	359.000000	
4.984370	357.000000	
5.004877	337.000000	
5.025385	346.000000	
5.045893	409.000000	
5.066400	348.000000	
5.086908	337.000000	
5.107416	321.000000	
5.127924	350.000000	
5.148431	352.000000	
5.168939	352.000000	
5.189447	336.000000	
5.209954	323.000000	
5.230462	376.000000	
5.250970	386.000000	
5.271477	365.000000	
5.291985	353.000000	
5.312493	354.000000	
5.333001	338.000000	
5.353508	354.000000	
5.374016	339.000000	
5.394524	358.000000	
5.415031	396.000000	
5.435539	388.000000	
5.456047	346.000000	
5.476554	338.000000	
5.497062	345.000000	
5.517570	324.000000	
5.538078	342.000000	
5.558585	366.000000	
5.579093	361.000000	
5.599601	334.000000	
5.620108	335.000000	
5.640616	345.000000	
5.661124	316.000000	
5.681632	359.000000	
5.702139	346.000000	
5.722647	331.000000	
5.743155	322.000000	
5.763662	346.000000	
5.784170	339.000000	
5.804678	382.000000	
5.825185	353.000000	
5.845693	334.000000	
5.866201	341.000000	
5.886709	332.000000	
5.907216	364.000000	
5.927724	374.000000	
5.948232	352.000000	
5.968739	326.000000	
5.989247	348.000000	
6.009755	336.000000	
6.030262	354.000000	
6.050770	317.000000	
6.071278	339.000000	
6.091786	368.000000	
6.112293	361.000000	
6.132801	359.000000	
6.153309	336.000000	
6.173816	317.000000	
6.194324	357.000000	
6.214832	363.000000	
6.235339	329.000000	
6.255847	318.000000	
6.276355	336.000000	
6.296863	295.000000	
6.317370	324.000000	
6.337878	354.000000	
6.358386	344.000000	
6.378893	361.000000	
6.399401	355.000000	
6.419909	344.000000	
6.440416	321.000000	
6.460924	320.000000	
6.481432	347.000000	
6.501940	381.000000	
6.522447	354.000000	
6.542955	378.000000	
6.563463	340.000000	
6.583970	330.000000	
6.604478	341.000000	
6.624986	361.000000	
6.645493	382.000000	
6.666001	367.000000	
6.686509	357.000000	
6.707017	325.000000	
6.727524	344.000000	
6.748032	339.000000	
6.768540	363.000000	
6.789047	338.000000	
6.809555	350.000000	
6.830063	333.000000	
6.850570	320.000000	
6.871078	348.000000	
6.891586	363.000000	
6.912094	328.000000	
6.932601	333.000000	
6.953109	323.000000	
6.973617	335.000000	
6.994124	319.000000	
7.014632	338.000000	
7.035140	353.000000	
7.055647	355.000000	
7.076155	333.000000	
7.096663	358.000000	
7.117171	314.000000	
7.137678	348.000000	
7.158186	340.000000	
7.178694	325.000000	
7.199201	351.000000	
7.219709	324.000000	
7.240217	342.000000	
7.260725	314.000000	
7.281232	356.000000	
7.301740	343.000000	
7.322248	344.000000	
7.342755	342.000000	
7.363263	359.000000	
7.383771	360.000000	
7.404278	361.000000	
7.424786	374.000000	
7.445294	340.000000	
7.465802	357.000000	
7.486309	322.000000	
7.506817	353.000000	
7.527325	364.000000	
7.547832	359.000000	
7.568340	385.000000	
7.588848	335.000000	
7.609355	369.000000	
7.629863	352.000000	
7.650371	338.000000	
7.670879	357.000000	
7.691386	338.000000	
7.711894	359.000000	
7.732402	377.000000	
7.752909	340.000000	
7.773417	355.000000	
7.793925	362.000000	
7.814432	360.000000	
7.834940	375.000000	
7.855448	358.000000	
7.875956	343.000000	
7.896463	359.000000	
7.916971	354.000000	
7.937479	344.000000	
7.957986	374.000000	
7.978494	350.000000	
7.999002	339.000000	
8.019509	354.000000	
8.040017	346.000000	
8.060525	360.000000	
8.081033	357.000000	
8.101540	352.000000	
8.122048	356.000000	
8.142556	400.000000	
8.163063	379.000000	
8.183571	374.000000	
8.204079	376.000000	
8.224586	349.000000	
8.245094	382.000000	
8.265602	364.000000	
8.286110	348.000000	
8.306617	368.000000	
8.327125	346.000000	
8.347633	338.000000	
8.368140	378.000000	
8.388648	340.000000	
8.409156	376.000000	
8.429663	349.000000	
8.450171	372.000000	
8.470679	369.000000	
8.491187	379.000000	
8.511694	356.000000	
8.532202	365.000000	
8.552710	366.000000	
8.573217	382.000000	
8.593725	370.000000	
8.614233	424.000000	
8.634740	402.000000	
8.655248	383.000000	
8.675756	387.000000	
8.696264	357.000000	
8.716771	392.000000	
8.737279	345.000000	
8.757787	399.000000	
8.778294	371.000000	
8.798802	371.000000	
8.819310	378.000000	
8.839818	379.000000	
8.860325	383.000000	
8.880833	362.000000	
8.901341	383.000000	
8.921848	414.000000	
8.942356	383.000000	
8.962864	433.000000	
8.983371	394.000000	
9.003879	379.000000	
9.024387	383.000000	
9.044895	410.000000	
9.065402	372.000000	
9.085910	387.000000	
9.106418	386.000000	
9.126925	382.000000	
9.147433	377.000000	
9.167941	360.000000	
9.188448	368.000000	
9.208956	388.000000	
9.229464	434.000000	
9.249972	416.000000	
9.270479	381.000000	
9.290987	389.000000	
9.311495	372.000000	
9.332002	393.000000	
9.352510	415.000000	
9.373018	371.000000	
9.393525	353.000000	
9.414033	415.000000	
9.434541	376.000000	
9.455049	381.000000	
9.475556	383.000000	
9.496064	420.000000	
9.516572	416.000000	
9.537079	387.000000	
9.557587	376.000000	
9.578095	393.000000	
9.598602	404.000000	
9.619110	356.000000	
9.639618	420.000000	
9.660126	403.000000	
9.680633	404.000000	
9.701141	411.000000	
9.721649	384.000000	
9.742156	403.000000	
9.762664	452.000000	
9.783172	427.000000	
9.803679	424.000000	
9.824187	440.000000	
9.844695	454.000000	
9.865203	429.000000	
9.885710	444.000000	
9.906218	419.000000	
9.926726	434.000000	
9.947233	439.000000	
9.967741	412.000000	
9.988249	438.000000	
10.008756	440.000000	
10.029264	505.000000	
10.049772	477.000000	
10.070280	460.000000	
10.090787	462.000000	
10.111295	454.000000	
10.131803	481.000000	
10.152310	479.000000	
10.172818	504.000000	
10.193326	484.000000	
10.213833	517.000000	
10.234341	526.000000	
10.254849	534.000000	
10.275357	537.000000	
10.295864	589.000000	
10.316372	597.000000	
10.336880	631.000000	
10.357387	611.000000	
10.377895	682.000000	
10.398403	706.000000	
10.418911	763.000000	
10.439418	717.000000	
10.459926	769.000000	
10.480434	833.000000	
10.500941	923.000000	
10.521449	945.000000	
10.541957	1026.000000	
10.562464	1148.000000	
10.582972	1289.000000	
10.603480	1356.000000	
10.623988	1565.000000	
10.644495	1810.000000	
10.665003	2004.000000	
10.685511	2297.000000	
10.706018	2326.000000	
10.726526	2322.000000	
10.747034	2207.000000	
10.767541	1991.000000	
10.788049	1921.000000	
10.808557	2122.000000	
10.829065	2247.000000	
10.849572	2497.000000	
10.870080	2723.000000	
10.890588	2741.000000	
10.911095	2559.000000	
10.931603	2124.000000	
10.952111	1620.000000	
10.972618	1321.000000	
10.993126	1108.000000	
11.013634	973.000000	
11.034142	883.000000	
11.054649	833.000000	
11.075157	812.000000	
11.095665	735.000000	
11.116172	755.000000	
11.136680	775.000000	
11.157188	784.000000	
11.177695	730.000000	
11.198203	738.000000	
11.218711	714.000000	
11.239219	834.000000	
11.259726	784.000000	
11.280234	863.000000	
11.300742	902.000000	
11.321249	908.000000	
11.341757	992.000000	
11.362265	996.000000	
11.382772	1105.000000	
11.403280	1186.000000	
11.423788	1266.000000	
11.444296	1331.000000	
11.464803	1493.000000	
11.485311	1610.000000	
11.505819	1847.000000	
11.526326	1940.000000	
11.546834	2331.000000	
11.567342	2571.000000	
11.587849	3050.000000	
11.608357	3570.000000	
11.628865	4281.000000	
11.649373	5103.000000	
11.669880	6117.000000	
11.690388	7318.000000	
11.710896	8153.000000	
11.731403	8302.000000	
11.751911	7195.000000	
11.772419	5701.000000	
11.792926	4658.000000	
11.813434	4363.000000	
11.833942	4625.000000	
11.854450	4682.000000	
11.874957	4625.000000	
11.895465	4022.000000	
11.915973	3176.000000	
11.936480	2187.000000	
11.956988	1675.000000	
11.977496	1449.000000	
11.998004	1308.000000	
12.018511	1116.000000	
12.039019	1040.000000	
12.059527	1055.000000	
12.080034	981.000000	
12.100542	883.000000	
12.121050	914.000000	
12.141557	928.000000	
12.162065	892.000000	
12.182573	889.000000	
12.203081	892.000000	
12.223588	896.000000	
12.244096	913.000000	
12.264604	878.000000	
12.285111	893.000000	
12.305619	870.000000	
12.326127	882.000000	
12.346634	873.000000	
12.367142	889.000000	
12.387650	916.000000	
12.408158	896.000000	
12.428665	822.000000	
12.449173	906.000000	
12.469681	860.000000	
12.490188	896.000000	
12.510696	890.000000	
12.531204	847.000000	
12.551711	900.000000	
12.572219	906.000000	
12.592727	822.000000	
12.613235	980.000000	
12.633742	873.000000	
12.654250	943.000000	
12.674758	949.000000	
12.695265	923.000000	
12.715773	920.000000	
12.736281	1010.000000	
12.756788	920.000000	
12.777296	953.000000	
12.797804	930.000000	
12.818312	972.000000	
12.838819	942.000000	
12.859327	955.000000	
12.879835	936.000000	
12.900342	991.000000	
12.920850	1006.000000	
12.941358	1061.000000	
12.961865	976.000000	
12.982373	1028.000000	
13.002881	1017.000000	
13.023389	1140.000000	
13.043896	1198.000000	
13.064404	1251.000000	
13.084912	1335.000000	
13.105419	1356.000000	
13.125927	1412.000000	
13.146435	1605.000000	
13.166942	1579.000000	
13.187450	1747.000000	
13.207958	1874.000000	
13.228466	2123.000000	
13.248973	2324.000000	
13.269481	2396.000000	
13.289989	2677.000000	
13.310496	2863.000000	
13.331004	2968.000000	
13.351512	3278.000000	
13.372019	3404.000000	
13.392527	3506.000000	
13.413035	3458.000000	
13.433543	3093.000000	
13.454050	2848.000000	
13.474558	2352.000000	
13.495066	2261.000000	
13.515573	2115.000000	
13.536081	2081.000000	
13.556589	2182.000000	
13.577097	2181.000000	
13.597604	2302.000000	
13.618112	2312.000000	
13.638620	2345.000000	
13.659127	2130.000000	
13.679635	1885.000000	
13.700143	1583.000000	
13.720650	1308.000000	
13.741158	1247.000000	
13.761666	1060.000000	
13.782174	1103.000000	
13.802681	1077.000000	
13.823189	1106.000000	
13.843697	1078.000000	
13.864204	1084.000000	
13.884712	1046.000000	
13.905220	1011.000000	
13.925727	996.000000	
13.946235	1017.000000	
13.966743	1008.000000	
13.987251	1050.000000	
14.007758	962.000000	
14.028266	1015.000000	
14.048774	987.000000	
14.069281	1055.000000	
14.089789	991.000000	
14.110297	963.000000	
14.130804	958.000000	
14.151312	1018.000000	
14.171820	992.000000	
14.192328	987.000000	
14.212835	1046.000000	
14.233343	1053.000000	
14.253851	947.000000	
14.274358	1024.000000	
14.294866	1094.000000	
14.315374	1000.000000	
14.335881	1095.000000	
14.356389	1124.000000	
14.376897	1088.000000	
14.397405	1053.000000	
14.417912	1069.000000	
14.438420	1132.000000	
14.458928	1143.000000	
14.479435	1146.000000	
14.499943	1150.000000	
14.520451	1088.000000	
14.540958	1160.000000	
14.561466	1186.000000	
14.581974	1240.000000	
14.602482	1232.000000	
14.622989	1274.000000	
14.643497	1302.000000	
14.664005	1200.000000	
14.684512	1282.000000	
14.705020	1155.000000	
14.725528	1161.000000	
14.746035	1138.000000	
14.766543	1115.000000	
14.787051	1099.000000	
14.807559	1087.000000	
14.828066	1018.000000	
14.848574	1009.000000	
14.869082	1058.000000	
14.889589	1035.000000	
14.910097	1020.000000	
14.930605	1108.000000	
14.951112	1087.000000	
14.971620	1029.000000	
14.992128	1061.000000	
15.012636	1107.000000	
15.033143	1106.000000	
15.053651	1059.000000	
15.074159	1022.000000	
15.094666	1083.000000	
15.115174	1053.000000	
15.135682	1105.000000	
15.156190	1063.000000	
15.176697	1121.000000	
15.197205	1076.000000	
15.217713	1081.000000	
15.238220	1093.000000	
15.258728	1129.000000	
15.279236	1130.000000	
15.299743	1117.000000	
15.320251	1113.000000	
15.340759	1078.000000	
15.361267	1116.000000	
15.381774	1145.000000	
15.402282	1110.000000	
15.422790	1169.000000	
15.443297	1212.000000	
15.463805	1136.000000	
15.484313	1126.000000	
15.504820	1185.000000	
15.525328	1206.000000	
15.545836	1271.000000	
15.566344	1267.000000	
15.586851	1258.000000	
15.607359	1337.000000	
15.627867	1314.000000	
15.648374	1377.000000	
15.668882	1329.000000	
15.689390	1471.000000	
15.709897	1447.000000	
15.730405	1469.000000	
15.750913	1524.000000	
15.771421	1578.000000	
15.791928	1636.000000	
15.812436	1594.000000	
15.832944	1686.000000	
15.853451	1880.000000	
15.873959	1834.000000	
15.894467	1914.000000	
15.914974	1980.000000	
15.935482	2060.000000	
15.955990	2106.000000	
15.976498	2069.000000	
15.997005	1907.000000	
16.017513	1998.000000	
16.038021	1830.000000	
16.058528	1757.000000	
16.079036	1820.000000	
16.099544	1703.000000	
16.120051	1655.000000	
16.140559	1605.000000	
16.161067	1540.000000	
16.181575	1579.000000	
16.202082	1586.000000	
16.222590	1628.000000	
16.243098	1583.000000	
16.263605	1706.000000	
16.284113	1652.000000	
16.304621	1790.000000	
16.325128	1914.000000	
16.345636	1872.000000	
16.366144	2059.000000	
16.386652	2090.000000	
16.407159	2318.000000	
16.427667	2392.000000	
16.448175	2498.000000	
16.468682	2543.000000	
16.489190	2694.000000	
16.509698	2897.000000	
16.530205	2988.000000	
16.550713	3097.000000	
16.571221	3371.000000	
16.591729	3651.000000	
16.612236	3861.000000	
16.632744	4047.000000	
16.653252	4599.000000	
16.673759	4892.000000	
16.694267	5265.000000	
16.714775	5752.000000	
16.735283	6008.000000	
16.755790	5966.000000	
16.776298	5679.000000	
16.796806	4607.000000	
16.817313	3587.000000	
16.837821	2776.000000	
16.858329	2324.000000	
16.878836	1985.000000	
16.899344	1914.000000	
16.919852	1962.000000	
16.940360	1973.000000	
16.960867	2039.000000	
16.981375	1985.000000	
17.001883	2111.000000	
17.022390	2176.000000	
17.042898	2295.000000	
17.063406	2477.000000	
17.083913	2559.000000	
17.104421	2588.000000	
17.124929	2795.000000	
17.145437	2887.000000	
17.165944	3067.000000	
17.186452	3246.000000	
17.206960	3402.000000	
17.227467	3655.000000	
17.247975	3920.000000	
17.268483	4148.000000	
17.288990	4324.000000	
17.309498	4555.000000	
17.330006	4772.000000	
17.350514	4905.000000	
17.371021	4853.000000	
17.391529	4601.000000	
17.412037	4198.000000	
17.432544	4002.000000	
17.453052	3464.000000	
17.473560	3119.000000	
17.494067	2804.000000	
17.514575	2542.000000	
17.535083	2221.000000	
17.555591	2110.000000	
17.576098	2060.000000	
17.596606	2005.000000	
17.617114	1947.000000	
17.637621	1873.000000	
17.658129	1819.000000	
17.678637	1887.000000	
17.699144	1840.000000	
17.719652	1876.000000	
17.740160	1861.000000	
17.760668	1942.000000	
17.781175	1955.000000	
17.801683	2018.000000	
17.822191	2065.000000	
17.842698	2098.000000	
17.863206	2206.000000	
17.883714	2234.000000	
17.904221	2336.000000	
17.924729	2495.000000	
17.945237	2660.000000	
17.965745	2703.000000	
17.986252	2823.000000	
18.006760	2853.000000	
18.027268	3185.000000	
18.047775	3482.000000	
18.068283	3681.000000	
18.088791	4018.000000	
18.109298	4456.000000	
18.129806	4846.000000	
18.150314	5158.000000	
18.170822	5567.000000	
18.191329	5932.000000	
18.211837	6021.000000	
18.232345	6239.000000	
18.252852	6447.000000	
18.273360	6853.000000	
18.293868	7085.000000	
18.314376	7620.000000	
18.334883	8068.000000	
18.355391	8740.000000	
18.375899	9453.000000	
18.396406	9994.000000	
18.416914	10530.000000	
18.437422	11316.000000	
18.457929	12057.000000	
18.478437	12340.000000	
18.498945	12235.000000	
18.519453	12024.000000	
18.539960	11116.000000	
18.560468	10220.000000	
18.580976	8934.000000	
18.601483	7766.000000	
18.621991	7099.000000	
18.642499	6145.000000	
18.663006	5552.000000	
18.683514	5095.000000	
18.704022	4745.000000	
18.724530	4600.000000	
18.745037	4270.000000	
18.765545	4255.000000	
18.786053	4160.000000	
18.806560	4020.000000	
18.827068	3979.000000	
18.847576	3622.000000	
18.868083	3566.000000	
18.888591	3290.000000	
18.909099	3019.000000	
18.929607	2772.000000	
18.950114	2597.000000	
18.970622	2387.000000	
18.991130	2205.000000	
19.011637	2045.000000	
19.032145	1908.000000	
19.052653	1804.000000	
19.073160	1819.000000	
19.093668	1823.000000	
19.114176	1694.000000	
19.134684	1732.000000	
19.155191	1721.000000	
19.175699	1675.000000	
19.196207	1709.000000	
19.216714	1625.000000	
19.237222	1581.000000	
19.257730	1636.000000	
19.278237	1618.000000	
19.298745	1604.000000	
19.319253	1612.000000	
19.339761	1587.000000	
19.360268	1633.000000	
19.380776	1597.000000	
19.401284	1586.000000	
19.421791	1617.000000	
19.442299	1593.000000	
19.462807	1572.000000	
19.483314	1654.000000	
19.503822	1646.000000	
19.524330	1549.000000	
19.544838	1611.000000	
19.565345	1778.000000	
19.585853	1732.000000	
19.606361	1676.000000	
19.626868	1828.000000	
19.647376	1777.000000	
19.667884	1793.000000	
19.688391	1836.000000	
19.708899	1963.000000	
19.729407	1976.000000	
19.749915	1972.000000	
19.770422	2081.000000	
19.790930	2080.000000	
19.811438	2168.000000	
19.831945	2228.000000	
19.852453	2302.000000	
19.872961	2399.000000	
19.893469	2537.000000	
19.913976	2600.000000	
19.934484	2677.000000	
19.954992	2753.000000	
19.975499	2855.000000	
19.996007	2730.000000	
20.016515	2742.000000	
20.037022	2759.000000	
20.057530	2717.000000	
20.078038	2687.000000	
20.098546	2575.000000	
20.119053	2555.000000	
20.139561	2370.000000	
20.160069	2357.000000	
20.180576	2269.000000	
20.201084	2230.000000	
20.221592	2024.000000	
20.242099	2003.000000	
20.262607	2030.000000	
20.283115	1929.000000	
20.303623	1880.000000	
20.324130	1840.000000	
20.344638	1854.000000	
20.365146	1824.000000	
20.385653	1822.000000	
20.406161	1738.000000	
20.426669	1693.000000	
20.447176	1800.000000	
20.467684	1774.000000	
20.488192	1798.000000	
20.508700	1641.000000	
20.529207	1590.000000	
20.549715	1604.000000	
20.570223	1706.000000	
20.590730	1700.000000	
20.611238	1649.000000	
20.631746	1583.000000	
20.652253	1669.000000	
20.672761	1617.000000	
20.693269	1731.000000	
20.713777	1682.000000	
20.734284	1720.000000	
20.754792	1654.000000	
20.775300	1694.000000	
20.795807	1616.000000	
20.816315	1626.000000	
20.836823	1704.000000	
20.857330	1747.000000	
20.877838	1781.000000	
20.898346	1744.000000	
20.918854	1803.000000	
20.939361	1738.000000	
20.959869	1834.000000	
20.980377	1988.000000	
21.000884	2003.000000	
21.021392	2071.000000	
21.041900	2049.000000	
21.062407	2213.000000	
21.082915	2310.000000	
21.103423	2303.000000	
21.123931	2481.000000	
21.144438	2584.000000	
21.164946	2565.000000	
21.185454	2736.000000	
21.205961	2864.000000	
21.226469	2981.000000	
21.246977	3104.000000	
21.267484	3219.000000	
21.287992	3320.000000	
21.308500	3509.000000	
21.329008	3593.000000	
21.349515	3869.000000	
21.370023	4046.000000	
21.390531	4255.000000	
21.411038	4158.000000	
21.431546	4151.000000	
21.452054	3911.000000	
21.472562	3568.000000	
21.493069	3252.000000	
21.513577	3188.000000	
21.534085	2875.000000	
21.554592	2844.000000	
21.575100	2841.000000	
21.595608	2797.000000	
21.616115	2800.000000	
21.636623	2842.000000	
21.657131	2802.000000	
21.677639	2832.000000	
21.698146	2961.000000	
21.718654	2944.000000	
21.739162	3045.000000	
21.759669	3103.000000	
21.780177	3264.000000	
21.800685	3422.000000	
21.821192	3502.000000	
21.841700	3790.000000	
21.862208	3756.000000	
21.882716	3679.000000	
21.903223	3797.000000	
21.923731	3711.000000	
21.944239	3663.000000	
21.964746	3624.000000	
21.985254	3703.000000	
22.005762	3666.000000	
22.026269	3713.000000	
22.046777	3783.000000	
22.067285	3910.000000	
22.087793	3925.000000	
22.108300	4079.000000	
22.128808	4239.000000	
22.149316	4452.000000	
22.169823	4688.000000	
22.190331	4814.000000	
22.210839	4884.000000	
22.231346	4890.000000	
22.251854	4598.000000	
22.272362	4305.000000	
22.292870	3709.000000	
22.313377	3451.000000	
22.333885	2957.000000	
22.354393	2751.000000	
22.374900	2529.000000	
22.395408	2381.000000	
22.415916	2304.000000	
22.436423	2363.000000	
22.456931	2268.000000	
22.477439	2343.000000	
22.497947	2260.000000	
22.518454	2322.000000	
22.538962	2340.000000	
22.559470	2475.000000	
22.579977	2525.000000	
22.600485	2518.000000	
22.620993	2749.000000	
22.641500	2737.000000	
22.662008	2938.000000	
22.682516	3048.000000	
22.703024	3138.000000	
22.723531	3235.000000	
22.744039	3474.000000	
22.764547	3621.000000	
22.785054	3655.000000	
22.805562	4014.000000	
22.826070	4218.000000	
22.846577	4425.000000	
22.867085	4598.000000	
22.887593	4922.000000	
22.908101	5241.000000	
22.928608	5542.000000	
22.949116	5663.000000	
22.969624	6113.000000	
22.990131	6237.000000	
23.010639	6516.000000	
23.031147	6490.000000	
23.051655	6568.000000	
23.072162	6223.000000	
23.092670	5755.000000	
23.113178	5393.000000	
23.133685	4952.000000	
23.154193	4748.000000	
23.174701	4514.000000	
23.195208	4520.000000	
23.215716	4447.000000	
23.236224	4477.000000	
23.256732	4235.000000	
23.277239	4019.000000	
23.297747	3649.000000	
23.318255	3637.000000	
23.338762	3448.000000	
23.359270	3293.000000	
23.379778	3381.000000	
23.400285	3376.000000	
23.420793	3402.000000	
23.441301	3463.000000	
23.461809	3481.000000	
23.482316	3605.000000	
23.502824	3604.000000	
23.523332	3748.000000	
23.543839	3876.000000	
23.564347	4036.000000	
23.584855	4176.000000	
23.605362	4135.000000	
23.625870	4001.000000	
23.646378	3824.000000	
23.666886	3518.000000	
23.687393	3409.000000	
23.707901	3325.000000	
23.728409	3204.000000	
23.748916	3343.000000	
23.769424	3326.000000	
23.789932	3381.000000	
23.810439	3474.000000	
23.830947	3575.000000	
23.851455	3800.000000	
23.871963	4018.000000	
23.892470	4101.000000	
23.912978	4412.000000	
23.933486	4565.000000	
23.953993	4675.000000	
23.974501	5098.000000	
23.995009	5127.000000	
24.015516	5373.000000	
24.036024	5360.000000	
24.056532	5351.000000	
24.077040	5354.000000	
24.097547	5290.000000	
24.118055	5099.000000	
24.138563	4960.000000	
24.159070	4767.000000	
24.179578	4849.000000	
24.200086	4784.000000	
24.220593	4845.000000	
24.241101	4982.000000	
24.261609	5031.000000	
24.282117	5268.000000	
24.302624	5381.000000	
24.323132	5365.000000	
24.343640	5545.000000	
24.364147	5655.000000	
24.384655	5089.000000	
24.405163	4545.000000	
24.425670	4184.000000	
24.446178	3715.000000	
24.466686	3342.000000	
24.487194	3032.000000	
24.507701	2970.000000	
24.528209	2914.000000	
24.548717	2883.000000	
24.569224	2909.000000	
24.589732	2891.000000	
24.610240	2958.000000	
24.630748	2912.000000	
24.651255	2987.000000	
24.671763	3040.000000	
24.692271	3012.000000	
24.712778	3240.000000	
24.733286	3155.000000	
24.753794	3307.000000	
24.774301	3427.000000	
24.794809	3516.000000	
24.815317	3548.000000	
24.835825	3703.000000	
24.856332	3760.000000	
24.876840	3863.000000	
24.897348	3965.000000	
24.917855	4097.000000	
24.938363	4076.000000	
24.958871	4192.000000	
24.979378	4279.000000	
24.999886	4172.000000	
25.020394	4315.000000	
25.040902	4385.000000	
25.061409	4320.000000	
25.081917	4306.000000	
25.102425	4522.000000	
25.122932	4353.000000	
25.143440	4439.000000	
25.163948	4526.000000	
25.184455	4594.000000	
25.204963	4629.000000	
25.225471	4730.000000	
25.245979	4830.000000	
25.266486	5091.000000	
25.286994	5150.000000	
25.307502	5367.000000	
25.328009	5730.000000	
25.348517	6091.000000	
25.369025	6075.000000	
25.389532	6472.000000	
25.410040	6714.000000	
25.430548	7084.000000	
25.451056	7580.000000	
25.471563	7590.000000	
25.492071	8121.000000	
25.512579	8331.000000	
25.533086	8990.000000	
25.553594	9151.000000	
25.574102	9464.000000	
25.594609	9667.000000	
25.615117	9618.000000	
25.635625	9758.000000	
25.656133	9541.000000	
25.676640	9576.000000	
25.697148	8991.000000	
25.717656	8734.000000	
25.738163	8546.000000	
25.758671	8059.000000	
25.779179	7710.000000	
25.799686	7312.000000	
25.820194	6959.000000	
25.840702	6693.000000	
25.861210	6487.000000	
25.881717	6196.000000	
25.902225	6090.000000	
25.922733	6057.000000	
25.943240	5814.000000	
25.963748	5942.000000	
25.984256	6125.000000	
26.004763	6002.000000	
26.025271	6046.000000	
26.045779	6157.000000	
26.066287	6102.000000	
26.086794	6177.000000	
26.107302	6487.000000	
26.127810	6638.000000	
26.148317	6600.000000	
26.168825	6837.000000	
26.189333	7275.000000	
26.209841	7307.000000	
26.230348	7647.000000	
26.250856	7920.000000	
26.271364	8401.000000	
26.291871	8832.000000	
26.312379	9123.000000	
26.332887	9633.000000	
26.353394	10271.000000	
26.373902	10956.000000	
26.394410	11101.000000	
26.414918	11478.000000	
26.435425	11631.000000	
26.455933	10923.000000	
26.476441	9846.000000	
26.496948	8819.000000	
26.517456	7564.000000	
26.537964	6620.000000	
26.558471	5654.000000	
26.578979	4824.000000	
26.599487	4436.000000	
26.619995	4244.000000	
26.640502	3994.000000	
26.661010	3872.000000	
26.681518	4037.000000	
26.702025	3841.000000	
26.722533	3896.000000	
26.743041	3945.000000	
26.763548	4071.000000	
26.784056	4083.000000	
26.804564	4037.000000	
26.825072	4190.000000	
26.845579	4478.000000	
26.866087	4569.000000	
26.886595	4753.000000	
26.907102	4908.000000	
26.927610	5317.000000	
26.948118	5530.000000	
26.968625	6074.000000	
26.989133	6477.000000	
27.009641	6990.000000	
27.030149	7567.000000	
27.050656	8376.000000	
27.071164	8901.000000	
27.091672	9875.000000	
27.112179	10821.000000	
27.132687	11777.000000	
27.153195	12934.000000	
27.173702	13618.000000	
27.194210	14407.000000	
27.214718	15405.000000	
27.235226	16439.000000	
27.255733	17569.000000	
27.276241	18940.000000	
27.296749	20063.000000	
27.317256	21048.000000	
27.337764	22206.000000	
27.358272	22899.000000	
27.378779	24603.000000	
27.399287	25148.000000	
27.419795	26040.000000	
27.440303	26482.000000	
27.460810	27054.000000	
27.481318	26513.000000	
27.501826	25641.000000	
27.522333	23422.000000	
27.542841	21909.000000	
27.563349	19709.000000	
27.583856	17923.000000	
27.604364	16265.000000	
27.624872	15105.000000	
27.645380	14327.000000	
27.665887	14107.000000	
27.686395	14015.000000	
27.706903	14062.000000	
27.727410	13872.000000	
27.747918	13870.000000	
27.768426	13678.000000	
27.788934	13087.000000	
27.809441	11730.000000	
27.829949	10625.000000	
27.850457	8912.000000	
27.870964	7915.000000	
27.891472	6684.000000	
27.911980	5774.000000	
27.932487	5144.000000	
27.952995	4692.000000	
27.973503	4483.000000	
27.994011	4260.000000	
28.014518	4091.000000	
28.035026	4063.000000	
28.055534	4016.000000	
28.076041	4006.000000	
28.096549	3941.000000	
28.117057	3986.000000	
28.137564	4008.000000	
28.158072	3938.000000	
28.178580	3977.000000	
28.199088	4179.000000	
28.219595	4214.000000	
28.240103	4229.000000	
28.260611	4383.000000	
28.281118	4227.000000	
28.301626	4402.000000	
28.322134	4504.000000	
28.342641	4509.000000	
28.363149	4588.000000	
28.383657	4454.000000	
28.404165	4295.000000	
28.424672	4246.000000	
28.445180	4315.000000	
28.465688	4080.000000	
28.486195	3911.000000	
28.506703	3749.000000	
28.527211	3654.000000	
28.547718	3462.000000	
28.568226	3244.000000	
28.588734	3209.000000	
28.609242	2990.000000	
28.629749	2971.000000	
28.650257	2793.000000	
28.670765	2842.000000	
28.691272	2811.000000	
28.711780	2733.000000	
28.732288	2681.000000	
28.752795	2631.000000	
28.773303	2585.000000	
28.793811	2532.000000	
28.814319	2610.000000	
28.834826	2567.000000	
28.855334	2560.000000	
28.875842	2564.000000	
28.896349	2622.000000	
28.916857	2500.000000	
28.937365	2569.000000	
28.957872	2507.000000	
28.978380	2529.000000	
28.998888	2466.000000	
29.019396	2576.000000	
29.039903	2536.000000	
29.060411	2414.000000	
29.080919	2488.000000	
29.101426	2660.000000	
29.121934	2556.000000	
29.142442	2512.000000	
29.162949	2579.000000	
29.183457	2679.000000	
29.203965	2607.000000	
29.224473	2605.000000	
29.244980	2633.000000	
29.265488	2591.000000	
29.285996	2706.000000	
29.306503	2544.000000	
29.327011	2638.000000	
29.347519	2628.000000	
29.368027	2679.000000	
29.388534	2710.000000	
29.409042	2795.000000	
29.429550	2826.000000	
29.450057	2862.000000	
29.470565	2826.000000	
29.491073	2927.000000	
29.511580	2948.000000	
29.532088	2976.000000	
29.552596	3188.000000	
29.573104	3257.000000	
29.593611	3377.000000	
29.614119	3400.000000	
29.634627	3499.000000	
29.655134	3697.000000	
29.675642	3804.000000	
29.696150	4052.000000	
29.716657	4281.000000	
29.737165	4408.000000	
29.757673	4673.000000	
29.778181	4887.000000	
29.798688	5201.000000	
29.819196	5317.000000	
29.839704	5629.000000	
29.860211	6015.000000	
29.880719	6141.000000	
29.901227	6385.000000	
29.921734	6721.000000	
29.942242	6990.000000	
29.962750	7208.000000	
29.983258	7705.000000	
30.003765	7802.000000	
30.024273	7841.000000	
30.044781	7963.000000	
30.065288	7794.000000	
30.085796	7533.000000	
30.106304	7386.000000	
30.126811	6910.000000	
30.147319	6784.000000	
30.167827	6194.000000	
30.188335	5779.000000	
30.208842	5326.000000	
30.229350	5016.000000	
30.249858	4722.000000	
30.270365	4332.000000	
30.290873	4038.000000	
30.311381	3910.000000	
30.331888	3632.000000	
30.352396	3606.000000	
30.372904	3512.000000	
30.393412	3392.000000	
30.413919	3309.000000	
30.434427	3335.000000	
30.454935	3263.000000	
30.475442	3275.000000	
30.495950	3098.000000	
30.516458	3165.000000	
30.536965	3158.000000	
30.557473	3089.000000	
30.577981	3097.000000	
30.598489	3010.000000	
30.618996	2970.000000	
30.639504	2978.000000	
30.660012	2847.000000	
30.680519	2777.000000	
30.701027	2633.000000	
30.721535	2580.000000	
30.742042	2553.000000	
30.762550	2521.000000	
30.783058	2459.000000	
30.803566	2411.000000	
30.824073	2369.000000	
30.844581	2368.000000	
30.865089	2334.000000	
30.885596	2405.000000	
30.906104	2361.000000	
30.926612	2393.000000	
30.947120	2258.000000	
30.967627	2300.000000	
30.988135	2332.000000	
31.008643	2389.000000	
31.029150	2345.000000	
31.049658	2364.000000	
31.070166	2471.000000	
31.090673	2462.000000	
31.111181	2440.000000	
31.131689	2466.000000	
31.152197	2560.000000	
31.172704	2556.000000	
31.193212	2704.000000	
31.213720	2778.000000	
31.234227	2773.000000	
31.254735	2875.000000	
31.275243	2873.000000	
31.295750	2952.000000	
31.316258	3099.000000	
31.336766	3141.000000	
31.357274	3301.000000	
31.377781	3219.000000	
31.398289	3372.000000	
31.418797	3576.000000	
31.439304	3598.000000	
31.459812	3697.000000	
31.480320	3607.000000	
31.500827	3839.000000	
31.521335	3565.000000	
31.541843	3797.000000	
31.562351	3694.000000	
31.582858	3880.000000	
31.603366	3796.000000	
31.623874	3943.000000	
31.644381	4026.000000	
31.664889	3964.000000	
31.685397	3952.000000	
31.705904	3739.000000	
31.726412	3566.000000	
31.746920	3555.000000	
31.767428	3355.000000	
31.787935	3267.000000	
31.808443	3276.000000	
31.828951	3252.000000	
31.849458	3373.000000	
31.869966	3287.000000	
31.890474	3392.000000	
31.910981	3535.000000	
31.931489	3601.000000	
31.951997	3508.000000	
31.972505	3851.000000	
31.993012	3715.000000	
32.013520	3847.000000	
32.034028	4049.000000	
32.054535	4161.000000	
32.075043	4094.000000	
32.095551	4038.000000	
32.116058	4086.000000	
32.136566	4040.000000	
32.157074	4051.000000	
32.177582	3981.000000	
32.198089	3902.000000	
32.218597	3712.000000	
32.239105	3768.000000	
32.259612	3882.000000	
32.280120	3774.000000	
32.300628	3620.000000	
32.321135	3725.000000	
32.341643	3590.000000	
32.362151	3704.000000	
32.382659	3631.000000	
32.403166	3619.000000	
32.423674	3483.000000	
32.444182	3600.000000	
32.464689	3575.000000	
32.485197	3561.000000	
32.505705	3649.000000	
32.526213	3672.000000	
32.546720	3716.000000	
32.567228	3556.000000	
32.587736	3815.000000	
32.608243	3813.000000	
32.628751	3847.000000	
32.649259	3919.000000	
32.669766	4075.000000	
32.690274	4068.000000	
32.710782	4057.000000	
32.731290	4289.000000	
32.751797	4568.000000	
32.772305	4596.000000	
32.792813	4691.000000	
32.813320	4709.000000	
32.833828	4844.000000	
32.854336	4786.000000	
32.874843	4827.000000	
32.895351	5142.000000	
32.915859	5050.000000	
32.936367	5150.000000	
32.956874	5224.000000	
32.977382	5274.000000	
32.997890	5238.000000	
33.018397	5361.000000	
33.038905	5429.000000	
33.059413	5357.000000	
33.079920	5397.000000	
33.100428	5313.000000	
33.120936	5307.000000	
33.141444	5288.000000	
33.161951	5189.000000	
33.182459	4984.000000	
33.202967	4907.000000	
33.223474	4862.000000	
33.243982	4730.000000	
33.264490	4506.000000	
33.284997	4491.000000	
33.305505	4490.000000	
33.326013	4161.000000	
33.346521	4255.000000	
33.367028	4107.000000	
33.387536	4170.000000	
33.408044	4085.000000	
33.428551	4032.000000	
33.449059	4030.000000	
33.469567	3994.000000	
33.490074	4107.000000	
33.510582	3979.000000	
33.531090	3920.000000	
33.551598	3837.000000	
33.572105	3804.000000	
33.592613	3828.000000	
33.613121	3653.000000	
33.633628	3506.000000	
33.654136	3382.000000	
33.674644	3367.000000	
33.695151	3195.000000	
33.715659	3060.000000	
33.736167	3095.000000	
33.756675	3096.000000	
33.777182	2925.000000	
33.797690	2892.000000	
33.818198	2940.000000	
33.838705	2892.000000	
33.859213	2782.000000	
33.879721	2838.000000	
33.900228	2720.000000	
33.920736	2898.000000	
33.941244	2804.000000	
33.961752	2681.000000	
33.982259	2776.000000	
34.002767	2777.000000	
34.023275	2761.000000	
34.043782	2799.000000	
34.064290	2831.000000	
34.084798	2893.000000	
34.105306	2770.000000	
34.125813	2843.000000	
34.146321	2855.000000	
34.166829	2832.000000	
34.187336	2719.000000	
34.207844	2696.000000	
34.228352	2477.000000	
34.248859	2555.000000	
34.269367	2428.000000	
34.289875	2381.000000	
34.310383	2335.000000	
34.330890	2285.000000	
34.351398	2197.000000	
34.371906	2154.000000	
34.392413	2069.000000	
34.412921	2054.000000	
34.433429	2056.000000	
34.453936	2031.000000	
34.474444	1992.000000	
34.494952	2011.000000	
34.515460	2002.000000	
34.535967	2077.000000	
34.556475	2112.000000	
34.576983	1993.000000	
34.597490	2016.000000	
34.617998	2039.000000	
34.638506	2006.000000	
34.659013	2037.000000	
34.679521	2095.000000	
34.700029	2140.000000	
34.720537	2138.000000	
34.741044	2156.000000	
34.761552	2090.000000	
34.782060	2197.000000	
34.802567	2184.000000	
34.823075	2222.000000	
34.843583	2213.000000	
34.864090	2251.000000	
34.884598	2231.000000	
34.905106	2298.000000	
34.925614	2272.000000	
34.946121	2363.000000	
34.966629	2242.000000	
34.987137	2373.000000	
35.007644	2357.000000	
35.028152	2424.000000	
35.048660	2282.000000	
35.069167	2323.000000	
35.089675	2326.000000	
35.110183	2287.000000	
35.130691	2224.000000	
35.151198	2251.000000	
35.171706	2250.000000	
35.192214	2202.000000	
35.212721	2128.000000	
35.233229	2087.000000	
35.253737	2107.000000	
35.274244	1991.000000	
35.294752	2042.000000	
35.315260	2118.000000	
35.335768	2121.000000	
35.356275	2125.000000	
35.376783	2148.000000	
35.397291	2069.000000	
35.417798	2059.000000	
35.438306	2159.000000	
35.458814	2146.000000	
35.479321	2185.000000	
35.499829	2211.000000	
35.520337	2249.000000	
35.540845	2184.000000	
35.561352	2248.000000	
35.581860	2270.000000	
35.602368	2322.000000	
35.622875	2267.000000	
35.643383	2329.000000	
35.663891	2430.000000	
35.684399	2381.000000	
35.704906	2498.000000	
35.725414	2415.000000	
35.745922	2307.000000	
35.766429	2330.000000	
35.786937	2089.000000	
35.807445	2083.000000	
35.827952	2054.000000	
35.848460	1948.000000	
35.868968	1961.000000	
35.889476	1888.000000	
35.909983	1961.000000	
35.930491	1832.000000	
35.950999	1816.000000	
35.971506	1850.000000	
35.992014	1810.000000	
36.012522	1779.000000	
36.033029	1832.000000	
36.053537	1825.000000	
36.074045	1792.000000	
36.094553	1869.000000	
36.115060	1856.000000	
36.135568	1864.000000	
36.156076	1896.000000	
36.176583	1870.000000	
36.197091	1915.000000	
36.217599	1886.000000	
36.238106	1891.000000	
36.258614	1978.000000	
36.279122	1890.000000	
36.299630	2002.000000	
36.320137	1916.000000	
36.340645	1959.000000	
36.361153	1955.000000	
36.381660	1907.000000	
36.402168	1994.000000	
36.422676	2000.000000	
36.443183	2006.000000	
36.463691	2020.000000	
36.484199	1955.000000	
36.504707	1989.000000	
36.525214	2028.000000	
36.545722	2098.000000	
36.566230	2062.000000	
36.586737	2105.000000	
36.607245	2077.000000	
36.627753	2078.000000	
36.648260	2033.000000	
36.668768	2133.000000	
36.689276	2163.000000	
36.709784	2037.000000	
36.730291	2100.000000	
36.750799	2286.000000	
36.771307	2134.000000	
36.791814	2158.000000	
36.812322	2090.000000	
36.832830	2039.000000	
36.853337	2078.000000	
36.873845	2088.000000	
36.894353	2150.000000	
36.914861	2112.000000	
36.935368	2146.000000	
36.955876	2211.000000	
36.976384	2070.000000	
36.996891	2039.000000	
37.017399	2010.000000	
37.037907	1896.000000	
37.058414	1964.000000	
37.078922	2025.000000	
37.099430	1945.000000	
37.119938	1969.000000	
37.140445	1946.000000	
37.160953	1972.000000	
37.181461	2004.000000	
37.201968	2089.000000	
37.222476	1952.000000	
37.242984	2018.000000	
37.263492	2158.000000	
37.283999	2145.000000	
37.304507	2060.000000	
37.325015	2152.000000	
37.345522	2154.000000	
37.366030	2186.000000	
37.386538	2133.000000	
37.407045	2037.000000	
37.427553	2169.000000	
37.448061	2114.000000	
37.468569	2089.000000	
37.489076	2177.000000	
37.509584	2053.000000	
37.530092	2071.000000	
37.550599	2248.000000	
37.571107	2217.000000	
37.591615	2217.000000	
37.612122	2225.000000	
37.632630	2155.000000	
37.653138	2215.000000	
37.673646	2194.000000	
37.694153	2224.000000	
37.714661	2258.000000	
37.735169	2227.000000	
37.755676	2250.000000	
37.776184	2167.000000	
37.796692	2116.000000	
37.817199	2098.000000	
37.837707	2154.000000	
37.858215	2057.000000	
37.878723	2003.000000	
37.899230	1962.000000	
37.919738	2021.000000	
37.940246	2009.000000	
37.960753	1952.000000	
37.981261	2070.000000	
38.001769	1861.000000	
38.022276	2067.000000	
38.042784	2028.000000	
38.063292	2089.000000	
38.083800	2072.000000	
38.104307	2098.000000	
38.124815	2094.000000	
38.145323	2148.000000	
38.165830	2165.000000	
38.186338	2159.000000	
38.206846	2157.000000	
38.227353	2221.000000	
38.247861	2234.000000	
38.268369	2206.000000	
38.288877	2273.000000	
38.309384	2099.000000	
38.329892	2199.000000	
38.350400	2170.000000	
38.370907	2122.000000	
38.391415	2123.000000	
38.411923	2113.000000	
38.432430	2060.000000	
38.452938	2096.000000	
38.473446	1999.000000	
38.493954	2028.000000	
38.514461	1911.000000	
38.534969	1881.000000	
38.555477	1888.000000	
38.575984	1866.000000	
38.596492	1868.000000	
38.617000	1887.000000	
38.637507	1797.000000	
38.658015	1851.000000	
38.678523	1946.000000	
38.699031	1984.000000	
38.719538	1986.000000	
38.740046	1948.000000	
38.760554	1979.000000	
38.781061	1901.000000	
38.801569	1996.000000	
38.822077	2032.000000	
38.842585	2036.000000	
38.863092	1993.000000	
38.883600	2143.000000	
38.904108	2179.000000	
38.924615	2139.000000	
38.945123	2080.000000	
38.965631	2122.000000	
38.986138	2154.000000	
39.006646	2208.000000	
39.027154	2208.000000	
39.047662	2264.000000	
39.068169	2230.000000	
39.088677	2301.000000	
39.109185	2290.000000	
39.129692	2294.000000	
39.150200	2275.000000	
39.170708	2279.000000	
39.191215	2273.000000	
39.211723	2222.000000	
39.232231	2249.000000	
39.252739	2209.000000	
39.273246	2098.000000	
39.293754	2180.000000	
39.314262	2227.000000	
39.334769	2217.000000	
39.355277	2191.000000	
39.375785	2236.000000	
39.396292	2225.000000	
39.416800	2279.000000	
39.437308	2227.000000	
39.457816	2259.000000	
39.478323	2213.000000	
39.498831	2193.000000	
39.519339	2156.000000	
39.539846	2098.000000	
39.560354	2121.000000	
39.580862	2016.000000	
39.601369	1961.000000	
39.621877	1853.000000	
39.642385	1954.000000	
39.662893	1968.000000	
39.683400	1816.000000	
39.703908	1823.000000	
39.724416	1830.000000	
39.744923	1876.000000	
39.765431	1771.000000	
39.785939	1822.000000	
39.806446	1843.000000	
39.826954	1781.000000	
39.847462	1781.000000	
39.867970	1782.000000	
39.888477	1810.000000	
39.908985	1822.000000	
39.929493	1789.000000	
39.950000	1878.000000	
39.970508	1809.000000	
39.991016	1865.000000	
40.011523	1932.000000	
40.032031	1955.000000	
40.052539	1956.000000	
40.073047	2014.000000	
40.093554	2027.000000	
40.114062	1925.000000	
40.134570	1930.000000	
40.155077	1992.000000	
40.175585	2012.000000	
40.196093	2075.000000	
40.216600	2005.000000	
40.237108	2110.000000	
40.257616	2101.000000	
40.278124	2119.000000	
40.298631	2130.000000	
40.319139	2142.000000	
40.339647	2162.000000	
40.360154	2208.000000	
40.380662	2283.000000	
40.401170	2400.000000	
40.421678	2257.000000	
40.442185	2417.000000	
40.462693	2267.000000	
40.483201	2374.000000	
40.503708	2341.000000	
40.524216	2362.000000	
40.544724	2402.000000	
40.565231	2314.000000	
40.585739	2347.000000	
40.606247	2268.000000	
40.626755	2295.000000	
40.647262	2293.000000	
40.667770	2307.000000	
40.688278	2348.000000	
40.708785	2248.000000	
40.729293	2326.000000	
40.749801	2306.000000	
40.770308	2315.000000	
40.790816	2251.000000	
40.811324	2292.000000	
40.831832	2219.000000	
40.852339	2212.000000	
40.872847	2154.000000	
40.893355	2215.000000	
40.913862	2183.000000	
40.934370	2168.000000	
40.954878	2128.000000	
40.975385	2125.000000	
40.995893	2206.000000	
41.016401	2199.000000	
41.036909	2162.000000	
41.057416	2181.000000	
41.077924	2177.000000	
41.098432	2277.000000	
41.118939	2153.000000	
41.139447	2220.000000	
41.159955	2152.000000	
41.180462	2198.000000	
41.200970	2245.000000	
41.221478	2148.000000	
41.241986	2290.000000	
41.262493	2254.000000	
41.283001	2343.000000	
41.303509	2266.000000	
41.324016	2314.000000	
41.344524	2266.000000	
41.365032	2214.000000	
41.385539	2247.000000	
41.406047	2283.000000	
41.426555	2244.000000	
41.447063	2114.000000	
41.467570	2159.000000	
41.488078	2090.000000	
41.508586	2205.000000	
41.529093	2045.000000	
41.549601	2157.000000	
41.570109	2080.000000	
41.590616	2025.000000	
41.611124	2033.000000	
41.631632	2072.000000	
41.652140	1976.000000	
41.672647	1981.000000	
41.693155	1926.000000	
41.713663	1896.000000	
41.734170	1871.000000	
41.754678	1969.000000	
41.775186	1897.000000	
41.795693	1936.000000	
41.816201	1846.000000	
41.836709	1694.000000	
41.857217	1783.000000	
41.877724	1766.000000	
41.898232	1647.000000	
41.918740	1687.000000	
41.939247	1693.000000	
41.959755	1740.000000	
41.980263	1712.000000	
42.000771	1720.000000	
42.021278	1665.000000	
42.041786	1646.000000	
42.062294	1530.000000	
42.082801	1639.000000	
42.103309	1540.000000	
42.123817	1630.000000	
42.144324	1581.000000	
42.164832	1571.000000	
42.185340	1630.000000	
42.205848	1633.000000	
42.226355	1563.000000	
42.246863	1650.000000	
42.267371	1618.000000	
42.287878	1597.000000	
42.308386	1626.000000	
42.328894	1561.000000	
42.349401	1516.000000	
42.369909	1549.000000	
42.390417	1577.000000	
42.410925	1586.000000	
42.431432	1493.000000	
42.451940	1553.000000	
42.472448	1609.000000	
42.492955	1530.000000	
42.513463	1541.000000	
42.533971	1512.000000	
42.554478	1555.000000	
42.574986	1489.000000	
42.595494	1493.000000	
42.616002	1517.000000	
42.636509	1504.000000	
42.657017	1505.000000	
42.677525	1491.000000	
42.698032	1557.000000	
42.718540	1514.000000	
42.739048	1551.000000	
42.759555	1500.000000	
42.780063	1560.000000	
42.800571	1527.000000	
42.821079	1586.000000	
42.841586	1563.000000	
42.862094	1501.000000	
42.882602	1653.000000	
42.903109	1534.000000	
42.923617	1535.000000	
42.944125	1585.000000	
42.964632	1540.000000	
42.985140	1527.000000	
43.005648	1607.000000	
43.026156	1481.000000	
43.046663	1543.000000	
43.067171	1523.000000	
43.087679	1488.000000	
43.108186	1510.000000	
43.128694	1477.000000	
43.149202	1463.000000	
43.169709	1458.000000	
43.190217	1467.000000	
43.210725	1494.000000	
43.231233	1563.000000	
43.251740	1519.000000	
43.272248	1493.000000	
43.292756	1569.000000	
43.313263	1521.000000	
43.333771	1570.000000	
43.354279	1537.000000	
43.374786	1646.000000	
43.395294	1604.000000	
43.415802	1656.000000	
43.436310	1518.000000	
43.456817	1575.000000	
43.477325	1609.000000	
43.497833	1608.000000	
43.518340	1603.000000	
43.538848	1638.000000	
43.559356	1681.000000	
43.579864	1644.000000	
43.600371	1659.000000	
43.620879	1654.000000	
43.641387	1625.000000	
43.661894	1606.000000	
43.682402	1679.000000	
43.702910	1582.000000	
43.723417	1576.000000	
43.743925	1561.000000	
43.764433	1570.000000	
43.784941	1569.000000	
43.805448	1632.000000	
43.825956	1570.000000	
43.846464	1612.000000	
43.866971	1590.000000	
43.887479	1568.000000	
43.907987	1586.000000	
43.928494	1552.000000	
43.949002	1578.000000	
43.969510	1598.000000	
43.990018	1611.000000	
44.010525	1661.000000	
44.031033	1601.000000	
44.051541	1628.000000	
44.072048	1643.000000	
44.092556	1642.000000	
44.113064	1693.000000	
44.133571	1695.000000	
44.154079	1620.000000	
44.174587	1695.000000	
44.195095	1804.000000	
44.215602	1693.000000	
44.236110	1679.000000	
44.256618	1757.000000	
44.277125	1828.000000	
44.297633	1774.000000	
44.318141	1800.000000	
44.338648	1694.000000	
44.359156	1748.000000	
44.379664	1790.000000	
44.400172	1738.000000	
44.420679	1830.000000	
44.441187	1772.000000	
44.461695	1716.000000	
44.482202	1792.000000	
44.502710	1689.000000	
44.523218	1848.000000	
44.543725	1823.000000	
44.564233	1811.000000	
44.584741	1898.000000	
44.605249	1850.000000	
44.625756	1811.000000	
44.646264	1800.000000	
44.666772	1833.000000	
44.687279	1839.000000	
44.707787	1815.000000	
44.728295	1759.000000	
44.748802	1871.000000	
44.769310	1756.000000	
44.789818	1791.000000	
44.810326	1814.000000	
44.830833	1772.000000	
44.851341	1685.000000	
44.871849	1723.000000	
44.892356	1771.000000	
44.912864	1768.000000	
44.933372	1753.000000	
44.953879	1679.000000	
44.974387	1838.000000	
44.994895	1848.000000	
45.015403	1786.000000	
45.035910	1891.000000	
45.056418	1777.000000	
45.076926	1890.000000	
45.097433	1779.000000	
45.117941	1832.000000	
45.138449	1861.000000	
45.158957	1875.000000	
45.179464	1968.000000	
45.199972	1797.000000	
45.220480	1932.000000	
45.240987	1975.000000	
45.261495	1939.000000	
45.282003	1958.000000	
45.302510	1903.000000	
45.323018	2000.000000	
45.343526	2008.000000	
45.364034	2116.000000	
45.384541	2067.000000	
45.405049	2067.000000	
45.425557	1956.000000	
45.446064	1874.000000	
45.466572	1948.000000	
45.487080	1822.000000	
45.507587	1702.000000	
45.528095	1779.000000	
45.548603	1770.000000	
45.569111	1787.000000	
45.589618	1763.000000	
45.610126	1647.000000	
45.630634	1757.000000	
45.651141	1664.000000	
45.671649	1745.000000	
45.692157	1881.000000	
45.712664	1772.000000	
45.733172	1853.000000	
45.753680	1846.000000	
45.774188	1788.000000	
45.794695	1848.000000	
45.815203	1916.000000	
45.835711	1946.000000	
45.856218	1913.000000	
45.876726	1962.000000	
45.897234	1956.000000	
45.917741	1906.000000	
45.938249	1911.000000	
45.958757	1867.000000	
45.979265	1795.000000	
45.999772	1902.000000	
46.020280	1927.000000	
46.040788	1815.000000	
46.061295	1886.000000	
46.081803	1819.000000	
46.102311	1875.000000	
46.122818	1875.000000	
46.143326	1912.000000	
46.163834	1925.000000	
46.184342	1867.000000	
46.204849	1933.000000	
46.225357	1911.000000	
46.245865	1947.000000	
46.266372	1881.000000	
46.286880	1777.000000	
46.307388	1823.000000	
46.327895	1924.000000	
46.348403	1803.000000	
46.368911	1817.000000	
46.389419	1811.000000	
46.409926	1735.000000	
46.430434	1779.000000	
46.450942	1799.000000	
46.471449	1737.000000	
46.491957	1633.000000	
46.512465	1619.000000	
46.532972	1657.000000	
46.553480	1621.000000	
46.573988	1630.000000	
46.594496	1643.000000	
46.615003	1553.000000	
46.635511	1571.000000	
46.656019	1587.000000	
46.676526	1576.000000	
46.697034	1579.000000	
46.717542	1583.000000	
46.738050	1468.000000	
46.758557	1601.000000	
46.779065	1552.000000	
46.799573	1506.000000	
46.820080	1567.000000	
46.840588	1545.000000	
46.861096	1514.000000	
46.881603	1554.000000	
46.902111	1533.000000	
46.922619	1551.000000	
46.943127	1560.000000	
46.963634	1553.000000	
46.984142	1476.000000	
47.004650	1504.000000	
47.025157	1451.000000	
47.045665	1511.000000	
47.066173	1472.000000	
47.086680	1539.000000	
47.107188	1450.000000	
47.127696	1539.000000	
47.148204	1498.000000	
47.168711	1421.000000	
47.189219	1496.000000	
47.209727	1507.000000	
47.230234	1485.000000	
47.250742	1547.000000	
47.271250	1424.000000	
47.291757	1508.000000	
47.312265	1490.000000	
47.332773	1466.000000	
47.353281	1591.000000	
47.373788	1540.000000	
47.394296	1513.000000	
47.414804	1547.000000	
47.435311	1558.000000	
47.455819	1573.000000	
47.476327	1650.000000	
47.496834	1725.000000	
47.517342	1663.000000	
47.537850	1682.000000	
47.558358	1660.000000	
47.578865	1678.000000	
47.599373	1648.000000	
47.619881	1730.000000	
47.640388	1782.000000	
47.660896	1845.000000	
47.681404	1705.000000	
47.701911	1669.000000	
47.722419	1740.000000	
47.742927	1759.000000	
47.763435	1661.000000	
47.783942	1766.000000	
47.804450	1738.000000	
47.824958	1707.000000	
47.845465	1695.000000	
47.865973	1575.000000	
47.886481	1648.000000	
47.906988	1622.000000	
47.927496	1616.000000	
47.948004	1586.000000	
47.968512	1527.000000	
47.989019	1561.000000	
48.009527	1463.000000	
48.030035	1494.000000	
48.050542	1446.000000	
48.071050	1470.000000	
48.091558	1466.000000	
48.112065	1437.000000	
48.132573	1422.000000	
48.153081	1457.000000	
48.173589	1433.000000	
48.194096	1491.000000	
48.214604	1493.000000	
48.235112	1424.000000	
48.255619	1405.000000	
48.276127	1452.000000	
48.296635	1441.000000	
48.317143	1444.000000	
48.337650	1381.000000	
48.358158	1395.000000	
48.378666	1361.000000	
48.399173	1509.000000	
48.419681	1508.000000	
48.440189	1494.000000	
48.460696	1455.000000	
48.481204	1458.000000	
48.501712	1376.000000	
48.522220	1463.000000	
48.542727	1568.000000	
48.563235	1454.000000	
48.583743	1500.000000	
48.604250	1586.000000	
48.624758	1518.000000	
48.645266	1495.000000	
48.665773	1515.000000	
48.686281	1528.000000	
48.706789	1566.000000	
48.727297	1604.000000	
48.747804	1547.000000	
48.768312	1606.000000	
48.788820	1551.000000	
48.809327	1637.000000	
48.829835	1544.000000	
48.850343	1569.000000	
48.870850	1525.000000	
48.891358	1607.000000	
48.911866	1559.000000	
48.932374	1614.000000	
48.952881	1563.000000	
48.973389	1556.000000	
48.993897	1600.000000	
49.014404	1593.000000	
49.034912	1552.000000	
49.055420	1533.000000	
49.075927	1632.000000	
49.096435	1615.000000	
49.116943	1578.000000	
49.137451	1647.000000	
49.157958	1545.000000	
49.178466	1579.000000	
49.198974	1597.000000	
49.219481	1597.000000	
49.239989	1648.000000	
49.260497	1659.000000	
49.281004	1644.000000	
49.301512	1606.000000	
49.322020	1607.000000	
49.342528	1638.000000	
49.363035	1651.000000	
49.383543	1686.000000	
49.404051	1743.000000	
49.424558	1711.000000	
49.445066	1698.000000	
49.465574	1727.000000	
49.486081	1785.000000	
49.506589	1789.000000	
49.527097	1851.000000	
49.547605	1815.000000	
49.568112	1845.000000	
49.588620	1934.000000	
49.609128	1976.000000	
49.629635	2006.000000	
49.650143	2004.000000	
49.670651	2050.000000	
49.691158	2176.000000	
49.711666	2084.000000	
49.732174	2110.000000	
49.752682	2022.000000	
49.773189	2050.000000	
49.793697	1995.000000	
49.814205	2005.000000	
49.834712	1956.000000	
49.855220	1913.000000	
49.875728	1881.000000	
49.896236	1854.000000	
49.916743	1833.000000	
49.937251	1819.000000	
49.957759	1720.000000	
49.978266	1703.000000	
49.998774	1663.000000	
50.019282	1566.000000	
50.039789	1602.000000	
50.060297	1515.000000	
50.080805	1514.000000	
50.101313	1642.000000	
50.121820	1562.000000	
50.142328	1530.000000	
50.162836	1514.000000	
50.183343	1431.000000	
50.203851	1521.000000	
50.224359	1433.000000	
50.244866	1406.000000	
50.265374	1555.000000	
50.285882	1498.000000	
50.306390	1514.000000	
50.326897	1426.000000	
50.347405	1467.000000	
50.367913	1527.000000	
50.388420	1510.000000	
50.408928	1550.000000	
50.429436	1495.000000	
50.449943	1439.000000	
50.470451	1410.000000	
50.490959	1490.000000	
50.511467	1497.000000	
50.531974	1374.000000	
50.552482	1433.000000	
50.572990	1514.000000	
50.593497	1539.000000	
50.614005	1448.000000	
50.634513	1463.000000	
50.655020	1513.000000	
50.675528	1482.000000	
50.696036	1481.000000	
50.716544	1434.000000	
50.737051	1528.000000	
50.757559	1488.000000	
50.778067	1487.000000	
50.798574	1505.000000	
50.819082	1466.000000	
50.839590	1565.000000	
50.860097	1519.000000	
50.880605	1489.000000	
50.901113	1510.000000	
50.921621	1483.000000	
50.942128	1603.000000	
50.962636	1506.000000	
50.983144	1603.000000	
51.003651	1534.000000	
51.024159	1558.000000	
51.044667	1569.000000	
51.065174	1586.000000	
51.085682	1554.000000	
51.106190	1629.000000	
51.126698	1644.000000	
51.147205	1580.000000	
51.167713	1612.000000	
51.188221	1616.000000	
51.208728	1631.000000	
51.229236	1648.000000	
51.249744	1597.000000	
51.270251	1595.000000	
51.290759	1594.000000	
51.311267	1541.000000	
51.331775	1632.000000	
51.352282	1618.000000	
51.372790	1565.000000	
51.393298	1560.000000	
51.413805	1586.000000	
51.434313	1612.000000	
51.454821	1567.000000	
51.475329	1548.000000	
51.495836	1525.000000	
51.516344	1572.000000	
51.536852	1615.000000	
51.557359	1535.000000	
51.577867	1504.000000	
51.598375	1550.000000	
51.618882	1512.000000	
51.639390	1531.000000	
51.659898	1519.000000	
51.680406	1512.000000	
51.700913	1484.000000	
51.721421	1460.000000	
51.741929	1498.000000	
51.762436	1480.000000	
51.782944	1464.000000	
51.803452	1491.000000	
51.823959	1562.000000	
51.844467	1510.000000	
51.864975	1506.000000	
51.885483	1498.000000	
51.905990	1537.000000	
51.926498	1559.000000	
51.947006	1569.000000	
51.967513	1504.000000	
51.988021	1458.000000	
52.008529	1439.000000	
52.029036	1510.000000	
52.049544	1460.000000	
52.070052	1481.000000	
52.090560	1457.000000	
52.111067	1385.000000	
52.131575	1457.000000	
52.152083	1411.000000	
52.172590	1395.000000	
52.193098	1353.000000	
52.213606	1415.000000	
52.234113	1347.000000	
52.254621	1353.000000	
52.275129	1350.000000	
52.295637	1361.000000	
52.316144	1402.000000	
52.336652	1329.000000	
52.357160	1355.000000	
52.377667	1403.000000	
52.398175	1340.000000	
52.418683	1382.000000	
52.439190	1334.000000	
52.459698	1332.000000	
52.480206	1295.000000	
52.500714	1346.000000	
52.521221	1356.000000	
52.541729	1334.000000	
52.562237	1408.000000	
52.582744	1319.000000	
52.603252	1364.000000	
52.623760	1327.000000	
52.644267	1358.000000	
52.664775	1371.000000	
52.685283	1320.000000	
52.705791	1352.000000	
52.726298	1342.000000	
52.746806	1369.000000	
52.767314	1427.000000	
52.787821	1395.000000	
52.808329	1348.000000	
52.828837	1324.000000	
52.849344	1294.000000	
52.869852	1297.000000	
52.890360	1351.000000	
52.910868	1303.000000	
52.931375	1375.000000	
52.951883	1276.000000	
52.972391	1378.000000	
52.992898	1325.000000	
53.013406	1335.000000	
53.033914	1332.000000	
53.054422	1370.000000	
53.074929	1429.000000	
53.095437	1257.000000	
53.115945	1362.000000	
53.136452	1348.000000	
53.156960	1375.000000	
53.177468	1286.000000	
53.197975	1303.000000	
53.218483	1247.000000	
53.238991	1336.000000	
53.259499	1343.000000	
53.280006	1288.000000	
53.300514	1232.000000	
53.321022	1273.000000	
53.341529	1279.000000	
53.362037	1315.000000	
53.382545	1371.000000	
53.403052	1309.000000	
53.423560	1327.000000	
53.444068	1304.000000	
53.464576	1353.000000	
53.485083	1292.000000	
53.505591	1342.000000	
53.526099	1342.000000	
53.546606	1373.000000	
53.567114	1359.000000	
53.587622	1320.000000	
53.608129	1420.000000	
53.628637	1308.000000	
53.649145	1370.000000	
53.669653	1306.000000	
53.690160	1390.000000	
53.710668	1405.000000	
53.731176	1421.000000	
53.751683	1341.000000	
53.772191	1395.000000	
53.792699	1390.000000	
53.813206	1384.000000	
53.833714	1387.000000	
53.854222	1410.000000	
53.874730	1439.000000	
53.895237	1424.000000	
53.915745	1463.000000	
53.936253	1498.000000	
53.956760	1460.000000	
53.977268	1465.000000	
53.997776	1591.000000	
54.018283	1532.000000	
54.038791	1539.000000	
54.059299	1544.000000	
54.079807	1540.000000	
54.100314	1590.000000	
54.120822	1648.000000	
54.141330	1503.000000	
54.161837	1554.000000	
54.182345	1674.000000	
54.202853	1625.000000	
54.223360	1647.000000	
54.243868	1667.000000	
54.264376	1685.000000	
54.284884	1701.000000	
54.305391	1718.000000	
54.325899	1670.000000	
54.346407	1661.000000	
54.366914	1704.000000	
54.387422	1729.000000	
54.407930	1743.000000	
54.428437	1662.000000	
54.448945	1720.000000	
54.469453	1644.000000	
54.489961	1731.000000	
54.510468	1663.000000	
54.530976	1631.000000	
54.551484	1606.000000	
54.571991	1677.000000	
54.592499	1518.000000	
54.613007	1541.000000	
54.633515	1542.000000	
54.654022	1552.000000	
54.674530	1443.000000	
54.695038	1411.000000	
54.715545	1496.000000	
54.736053	1440.000000	
54.756561	1443.000000	
54.777068	1419.000000	
54.797576	1427.000000	
54.818084	1420.000000	
54.838592	1432.000000	
54.859099	1448.000000	
54.879607	1395.000000	
54.900115	1424.000000	
54.920622	1470.000000	
54.941130	1427.000000	
54.961638	1457.000000	
54.982145	1512.000000	
55.002653	1516.000000	
55.023161	1447.000000	
55.043669	1478.000000	
55.064176	1467.000000	
55.084684	1523.000000	
55.105192	1526.000000	
55.125699	1527.000000	
55.146207	1504.000000	
55.166715	1541.000000	
55.187222	1520.000000	
55.207730	1505.000000	
55.228238	1573.000000	
55.248746	1526.000000	
55.269253	1563.000000	
55.289761	1550.000000	
55.310269	1557.000000	
55.330776	1562.000000	
55.351284	1489.000000	
55.371792	1580.000000	
55.392299	1559.000000	
55.412807	1594.000000	
55.433315	1566.000000	
55.453823	1503.000000	
55.474330	1516.000000	
55.494838	1516.000000	
55.515346	1494.000000	
55.535853	1451.000000	
55.556361	1499.000000	
55.576869	1509.000000	
55.597376	1472.000000	
55.617884	1499.000000	
55.638392	1522.000000	
55.658900	1547.000000	
55.679407	1536.000000	
55.699915	1489.000000	
55.720423	1568.000000	
55.740930	1473.000000	
55.761438	1432.000000	
55.781946	1463.000000	
55.802453	1426.000000	
55.822961	1383.000000	
55.843469	1378.000000	
55.863977	1402.000000	
55.884484	1364.000000	
55.904992	1406.000000	
55.925500	1376.000000	
55.946007	1356.000000	
55.966515	1340.000000	
55.987023	1367.000000	
56.007530	1387.000000	
56.028038	1405.000000	
56.048546	1467.000000	
56.069054	1469.000000	
56.089561	1408.000000	
56.110069	1398.000000	
56.130577	1436.000000	
56.151084	1355.000000	
56.171592	1479.000000	
56.192100	1429.000000	
56.212608	1435.000000	
56.233115	1387.000000	
56.253623	1403.000000	
56.274131	1446.000000	
56.294638	1546.000000	
56.315146	1566.000000	
56.335654	1508.000000	
56.356161	1550.000000	
56.376669	1533.000000	
56.397177	1549.000000	
56.417685	1560.000000	
56.438192	1619.000000	
56.458700	1565.000000	
56.479208	1554.000000	
56.499715	1515.000000	
56.520223	1584.000000	
56.540731	1521.000000	
56.561238	1535.000000	
56.581746	1509.000000	
56.602254	1444.000000	
56.622762	1520.000000	
56.643269	1463.000000	
56.663777	1452.000000	
56.684285	1456.000000	
56.704792	1481.000000	
56.725300	1394.000000	
56.745808	1411.000000	
56.766315	1470.000000	
56.786823	1443.000000	
56.807331	1398.000000	
56.827839	1474.000000	
56.848346	1389.000000	
56.868854	1377.000000	
56.889362	1326.000000	
56.909869	1353.000000	
56.930377	1308.000000	
56.950885	1272.000000	
56.971392	1241.000000	
56.991900	1213.000000	
57.012408	1224.000000	
57.032916	1250.000000	
57.053423	1175.000000	
57.073931	1204.000000	
57.094439	1286.000000	
57.114946	1249.000000	
57.135454	1215.000000	
57.155962	1246.000000	
57.176469	1177.000000	
57.196977	1252.000000	
57.217485	1236.000000	
57.237993	1240.000000	
57.258500	1252.000000	
57.279008	1197.000000	
57.299516	1266.000000	
57.320023	1241.000000	
57.340531	1223.000000	
57.361039	1242.000000	
57.381546	1240.000000	
57.402054	1294.000000	
57.422562	1245.000000	
57.443070	1201.000000	
57.463577	1266.000000	
57.484085	1253.000000	
57.504593	1247.000000	
57.525100	1303.000000	
57.545608	1287.000000	
57.566116	1321.000000	
57.586623	1276.000000	
57.607131	1217.000000	
57.627639	1286.000000	
57.648147	1275.000000	
57.668654	1190.000000	
57.689162	1257.000000	
57.709670	1213.000000	
57.730177	1270.000000	
57.750685	1226.000000	
57.771193	1236.000000	
57.791701	1264.000000	
57.812208	1255.000000	
57.832716	1275.000000	
57.853224	1285.000000	
57.873731	1165.000000	
57.894239	1211.000000	
57.914747	1233.000000	
57.935254	1301.000000	
57.955762	1282.000000	
57.976270	1234.000000	
57.996778	1288.000000	
58.017285	1258.000000	
58.037793	1212.000000	
58.058301	1220.000000	
58.078808	1232.000000	
58.099316	1257.000000	
58.119824	1256.000000	
58.140331	1237.000000	
58.160839	1165.000000	
58.181347	1230.000000	
58.201855	1187.000000	
58.222362	1187.000000	
58.242870	1196.000000	
58.263378	1165.000000	
58.283885	1139.000000	
58.304393	1163.000000	
58.324901	1185.000000	
58.345408	1213.000000	
58.365916	1214.000000	
58.386424	1204.000000	
58.406932	1107.000000	
58.427439	1224.000000	
58.447947	1120.000000	
58.468455	1207.000000	
58.488962	1191.000000	
58.509470	1183.000000	
58.529978	1209.000000	
58.550485	1145.000000	
58.570993	1180.000000	
58.591501	1176.000000	
58.612009	1193.000000	
58.632516	1144.000000	
58.653024	1200.000000	
58.673532	1269.000000	
58.694039	1236.000000	
58.714547	1222.000000	
58.735055	1239.000000	
58.755562	1288.000000	
58.776070	1166.000000	
58.796578	1232.000000	
58.817086	1206.000000	
58.837593	1286.000000	
58.858101	1142.000000	
58.878609	1231.000000	
58.899116	1194.000000	
58.919624	1189.000000	
58.940132	1212.000000	
58.960639	1220.000000	
58.981147	1205.000000	
59.001655	1182.000000	
59.022163	1194.000000	
59.042670	1190.000000	
59.063178	1145.000000	
59.083686	1164.000000	
59.104193	1122.000000	
59.124701	1210.000000	
59.145209	1159.000000	
59.165716	1140.000000	
59.186224	1173.000000	
59.206732	1116.000000	
59.227240	1137.000000	
59.247747	1162.000000	
59.268255	1167.000000	
59.288763	1165.000000	
59.309270	1119.000000	
59.329778	1159.000000	
59.350286	1116.000000	
59.370794	1168.000000	
59.391301	1126.000000	
59.411809	1195.000000	
59.432317	1126.000000	
59.452824	1119.000000	
59.473332	1138.000000	
59.493840	1078.000000	
59.514347	1144.000000	
59.534855	1110.000000	
59.555363	1084.000000	
59.575871	1112.000000	
59.596378	1075.000000	
59.616886	1095.000000	
59.637394	1116.000000	
59.657901	1074.000000	
59.678409	1065.000000	
59.698917	1167.000000	
59.719424	1094.000000	
59.739932	1103.000000	
59.760440	1212.000000	
59.780948	1018.000000	
59.801455	1090.000000	
59.821963	1083.000000	
59.842471	1068.000000	
59.862978	1021.000000	
59.883486	1109.000000	
59.903994	1050.000000	
59.924501	1074.000000	
59.945009	1096.000000	
59.965517	1063.000000	
59.986025	1061.000000	
60.006532	1157.000000	
