;content of C:\2026\IF\Dr-IVAN\26-02-2026\FTN4.raw - (Diffrac Plus V4 file)
_FILEVERSION = 3
_SAMPLE = FTN4
_+SAMPLE
_USER = Lab Manager
_GONIOMETER_CODE = 21
_STAGE_CODE = 7
; Goniometer : D8 theta/theta, stage : Chi drive
_SAMPLE_CHANGER_CODE = 0
_ATTACHMENTS_CODE = 0
_GONIOMETER_RADIUS = 280
_SOLLER_SLITS = 2
_FIXED_DETSLIT = 6
_MONOCHROMATOR = 0
; Incident beam monochromator : None
_BETA_FILTER = N
_ANALYZER_CODE = 0
; Received beam analyzer : None
_DATEMEASURED = 25-Feb-2026 16:10:35
_RUNTIME = 1738.717
_WL_UNIT = A
_WL1 = 1.540600
_WL2 = 1.544390
_WL3 = 1.392220
_WLRATIO = 0.500000
_ANODE = Cu
_V4_INF_USER = Lab Manager
_V4_INF_SAMPLEID = FTN4
_V4_INF_CREATOR = BrmlToV4Converter
_V4_INF_CREATOR_VERSION = 7.3.1.0

; Data for range 1
_DRIVE = COUPLED
_STEPTIME = 115.2
_STEPSIZE = 0.020508
_STEPMODE = C
_START = 4.000000
_THETA = 2.000000
_2THETA = 4.000000
_PHI = 336.617188
_DIVERGENCE = 0.379996
_DETECTORSLIT = out
_TIMESTARTED = 0
_ROTATION_SPEED = 15
_KV = 40
_MA = 35
_RANGE_WL = 1.541800
_3DPLANE = 0
_V4_PSD2THETA = 9999.000000
_V4_PSDCHANNEL1 = 0
_V4_PSDAPERTURE = 2.953109
_V4_PSDTYPE = 5
_V4_PSDFIXED = 0
_V4_COUNTERS_MASK = 1
_V4_DRIVES_MASK = 0
_V4_ENCODERS_MASK = 0
_2THETACOUNTS = 1
; 2THETA	Cnt2_D1	
4.000000	418.000000	
4.020508	428.000000	
4.041015	425.000000	
4.061523	412.000000	
4.082031	389.000000	
4.102539	410.000000	
4.123046	392.000000	
4.143554	414.000000	
4.164062	372.000000	
4.184569	427.000000	
4.205077	378.000000	
4.225585	412.000000	
4.246092	364.000000	
4.266600	407.000000	
4.287108	426.000000	
4.307616	401.000000	
4.328123	391.000000	
4.348631	362.000000	
4.369139	392.000000	
4.389646	378.000000	
4.410154	391.000000	
4.430662	358.000000	
4.451169	369.000000	
4.471677	390.000000	
4.492185	346.000000	
4.512693	372.000000	
4.533200	378.000000	
4.553708	401.000000	
4.574216	362.000000	
4.594723	356.000000	
4.615231	365.000000	
4.635739	345.000000	
4.656246	352.000000	
4.676754	375.000000	
4.697262	383.000000	
4.717770	382.000000	
4.738277	353.000000	
4.758785	392.000000	
4.779293	386.000000	
4.799800	356.000000	
4.820308	382.000000	
4.840816	340.000000	
4.861323	354.000000	
4.881831	361.000000	
4.902339	387.000000	
4.922847	389.000000	
4.943354	342.000000	
4.963862	342.000000	
4.984370	329.000000	
5.004877	361.000000	
5.025385	337.000000	
5.045893	358.000000	
5.066400	352.000000	
5.086908	334.000000	
5.107416	343.000000	
5.127924	353.000000	
5.148431	354.000000	
5.168939	306.000000	
5.189447	331.000000	
5.209954	354.000000	
5.230462	319.000000	
5.250970	327.000000	
5.271477	296.000000	
5.291985	330.000000	
5.312493	333.000000	
5.333001	337.000000	
5.353508	309.000000	
5.374016	346.000000	
5.394524	311.000000	
5.415031	345.000000	
5.435539	361.000000	
5.456047	342.000000	
5.476554	330.000000	
5.497062	337.000000	
5.517570	343.000000	
5.538078	307.000000	
5.558585	347.000000	
5.579093	328.000000	
5.599601	337.000000	
5.620108	363.000000	
5.640616	311.000000	
5.661124	337.000000	
5.681632	303.000000	
5.702139	343.000000	
5.722647	338.000000	
5.743155	376.000000	
5.763662	368.000000	
5.784170	321.000000	
5.804678	338.000000	
5.825185	331.000000	
5.845693	322.000000	
5.866201	322.000000	
5.886709	312.000000	
5.907216	334.000000	
5.927724	316.000000	
5.948232	328.000000	
5.968739	328.000000	
5.989247	355.000000	
6.009755	330.000000	
6.030262	317.000000	
6.050770	344.000000	
6.071278	308.000000	
6.091786	307.000000	
6.112293	364.000000	
6.132801	346.000000	
6.153309	329.000000	
6.173816	320.000000	
6.194324	340.000000	
6.214832	320.000000	
6.235339	362.000000	
6.255847	342.000000	
6.276355	328.000000	
6.296863	335.000000	
6.317370	320.000000	
6.337878	315.000000	
6.358386	345.000000	
6.378893	321.000000	
6.399401	334.000000	
6.419909	320.000000	
6.440416	314.000000	
6.460924	359.000000	
6.481432	314.000000	
6.501940	327.000000	
6.522447	327.000000	
6.542955	316.000000	
6.563463	292.000000	
6.583970	310.000000	
6.604478	330.000000	
6.624986	343.000000	
6.645493	297.000000	
6.666001	347.000000	
6.686509	329.000000	
6.707017	361.000000	
6.727524	298.000000	
6.748032	316.000000	
6.768540	296.000000	
6.789047	320.000000	
6.809555	315.000000	
6.830063	336.000000	
6.850570	347.000000	
6.871078	317.000000	
6.891586	322.000000	
6.912094	307.000000	
6.932601	327.000000	
6.953109	345.000000	
6.973617	326.000000	
6.994124	337.000000	
7.014632	337.000000	
7.035140	320.000000	
7.055647	339.000000	
7.076155	333.000000	
7.096663	316.000000	
7.117171	296.000000	
7.137678	321.000000	
7.158186	352.000000	
7.178694	326.000000	
7.199201	339.000000	
7.219709	317.000000	
7.240217	324.000000	
7.260725	350.000000	
7.281232	337.000000	
7.301740	305.000000	
7.322248	301.000000	
7.342755	329.000000	
7.363263	346.000000	
7.383771	346.000000	
7.404278	289.000000	
7.424786	338.000000	
7.445294	324.000000	
7.465802	323.000000	
7.486309	326.000000	
7.506817	317.000000	
7.527325	315.000000	
7.547832	353.000000	
7.568340	276.000000	
7.588848	324.000000	
7.609355	329.000000	
7.629863	351.000000	
7.650371	361.000000	
7.670879	342.000000	
7.691386	326.000000	
7.711894	336.000000	
7.732402	304.000000	
7.752909	330.000000	
7.773417	315.000000	
7.793925	325.000000	
7.814432	336.000000	
7.834940	363.000000	
7.855448	326.000000	
7.875956	300.000000	
7.896463	348.000000	
7.916971	343.000000	
7.937479	327.000000	
7.957986	348.000000	
7.978494	330.000000	
7.999002	331.000000	
8.019509	353.000000	
8.040017	319.000000	
8.060525	351.000000	
8.081033	343.000000	
8.101540	359.000000	
8.122048	338.000000	
8.142556	353.000000	
8.163063	317.000000	
8.183571	366.000000	
8.204079	337.000000	
8.224586	322.000000	
8.245094	341.000000	
8.265602	328.000000	
8.286110	339.000000	
8.306617	350.000000	
8.327125	356.000000	
8.347633	329.000000	
8.368140	341.000000	
8.388648	326.000000	
8.409156	353.000000	
8.429663	324.000000	
8.450171	337.000000	
8.470679	331.000000	
8.491187	336.000000	
8.511694	337.000000	
8.532202	366.000000	
8.552710	323.000000	
8.573217	342.000000	
8.593725	345.000000	
8.614233	351.000000	
8.634740	365.000000	
8.655248	355.000000	
8.675756	347.000000	
8.696264	371.000000	
8.716771	321.000000	
8.737279	339.000000	
8.757787	331.000000	
8.778294	356.000000	
8.798802	354.000000	
8.819310	335.000000	
8.839818	369.000000	
8.860325	372.000000	
8.880833	350.000000	
8.901341	354.000000	
8.921848	326.000000	
8.942356	374.000000	
8.962864	379.000000	
8.983371	350.000000	
9.003879	374.000000	
9.024387	378.000000	
9.044895	324.000000	
9.065402	333.000000	
9.085910	371.000000	
9.106418	372.000000	
9.126925	343.000000	
9.147433	359.000000	
9.167941	333.000000	
9.188448	372.000000	
9.208956	388.000000	
9.229464	346.000000	
9.249972	354.000000	
9.270479	345.000000	
9.290987	370.000000	
9.311495	368.000000	
9.332002	370.000000	
9.352510	352.000000	
9.373018	347.000000	
9.393525	355.000000	
9.414033	338.000000	
9.434541	388.000000	
9.455049	367.000000	
9.475556	354.000000	
9.496064	370.000000	
9.516572	409.000000	
9.537079	380.000000	
9.557587	340.000000	
9.578095	375.000000	
9.598602	403.000000	
9.619110	381.000000	
9.639618	398.000000	
9.660126	390.000000	
9.680633	389.000000	
9.701141	356.000000	
9.721649	373.000000	
9.742156	398.000000	
9.762664	371.000000	
9.783172	374.000000	
9.803679	365.000000	
9.824187	341.000000	
9.844695	366.000000	
9.865203	411.000000	
9.885710	408.000000	
9.906218	376.000000	
9.926726	399.000000	
9.947233	377.000000	
9.967741	435.000000	
9.988249	385.000000	
10.008756	382.000000	
10.029264	417.000000	
10.049772	424.000000	
10.070280	446.000000	
10.090787	430.000000	
10.111295	388.000000	
10.131803	387.000000	
10.152310	432.000000	
10.172818	460.000000	
10.193326	415.000000	
10.213833	468.000000	
10.234341	468.000000	
10.254849	502.000000	
10.275357	487.000000	
10.295864	474.000000	
10.316372	526.000000	
10.336880	544.000000	
10.357387	589.000000	
10.377895	549.000000	
10.398403	586.000000	
10.418911	598.000000	
10.439418	677.000000	
10.459926	614.000000	
10.480434	705.000000	
10.500941	744.000000	
10.521449	801.000000	
10.541957	868.000000	
10.562464	891.000000	
10.582972	989.000000	
10.603480	1082.000000	
10.623988	1229.000000	
10.644495	1342.000000	
10.665003	1537.000000	
10.685511	1652.000000	
10.706018	1603.000000	
10.726526	1447.000000	
10.747034	1238.000000	
10.767541	1083.000000	
10.788049	991.000000	
10.808557	980.000000	
10.829065	1021.000000	
10.849572	1065.000000	
10.870080	1073.000000	
10.890588	1128.000000	
10.911095	1056.000000	
10.931603	962.000000	
10.952111	802.000000	
10.972618	726.000000	
10.993126	656.000000	
11.013634	650.000000	
11.034142	638.000000	
11.054649	602.000000	
11.075157	647.000000	
11.095665	600.000000	
11.116172	610.000000	
11.136680	665.000000	
11.157188	628.000000	
11.177695	707.000000	
11.198203	695.000000	
11.218711	735.000000	
11.239219	783.000000	
11.259726	883.000000	
11.280234	913.000000	
11.300742	1066.000000	
11.321249	1093.000000	
11.341757	1146.000000	
11.362265	1275.000000	
11.382772	1361.000000	
11.403280	1531.000000	
11.423788	1624.000000	
11.444296	1645.000000	
11.464803	1884.000000	
11.485311	2100.000000	
11.505819	2356.000000	
11.526326	2545.000000	
11.546834	2832.000000	
11.567342	3470.000000	
11.587849	4152.000000	
11.608357	4873.000000	
11.628865	5845.000000	
11.649373	7135.000000	
11.669880	8284.000000	
11.690388	9449.000000	
11.710896	10290.000000	
11.731403	10263.000000	
11.751911	8191.000000	
11.772419	5757.000000	
11.792926	4325.000000	
11.813434	4095.000000	
11.833942	4002.000000	
11.854450	3954.000000	
11.874957	3716.000000	
11.895465	3149.000000	
11.915973	2363.000000	
11.936480	1758.000000	
11.956988	1441.000000	
11.977496	1240.000000	
11.998004	1122.000000	
12.018511	995.000000	
12.039019	1017.000000	
12.059527	878.000000	
12.080034	881.000000	
12.100542	874.000000	
12.121050	851.000000	
12.141557	852.000000	
12.162065	856.000000	
12.182573	864.000000	
12.203081	837.000000	
12.223588	817.000000	
12.244096	801.000000	
12.264604	824.000000	
12.285111	768.000000	
12.305619	792.000000	
12.326127	793.000000	
12.346634	793.000000	
12.367142	782.000000	
12.387650	832.000000	
12.408158	788.000000	
12.428665	804.000000	
12.449173	742.000000	
12.469681	796.000000	
12.490188	804.000000	
12.510696	789.000000	
12.531204	765.000000	
12.551711	813.000000	
12.572219	813.000000	
12.592727	824.000000	
12.613235	827.000000	
12.633742	860.000000	
12.654250	865.000000	
12.674758	866.000000	
12.695265	887.000000	
12.715773	806.000000	
12.736281	862.000000	
12.756788	850.000000	
12.777296	869.000000	
12.797804	836.000000	
12.818312	851.000000	
12.838819	911.000000	
12.859327	856.000000	
12.879835	895.000000	
12.900342	912.000000	
12.920850	928.000000	
12.941358	933.000000	
12.961865	964.000000	
12.982373	980.000000	
13.002881	1016.000000	
13.023389	1054.000000	
13.043896	1046.000000	
13.064404	1069.000000	
13.084912	1209.000000	
13.105419	1225.000000	
13.125927	1279.000000	
13.146435	1455.000000	
13.166942	1505.000000	
13.187450	1543.000000	
13.207958	1670.000000	
13.228466	1772.000000	
13.248973	1923.000000	
13.269481	2138.000000	
13.289989	2350.000000	
13.310496	2404.000000	
13.331004	2551.000000	
13.351512	2665.000000	
13.372019	2803.000000	
13.392527	2832.000000	
13.413035	2676.000000	
13.433543	2400.000000	
13.454050	2250.000000	
13.474558	1925.000000	
13.495066	1870.000000	
13.515573	1759.000000	
13.536081	1780.000000	
13.556589	1746.000000	
13.577097	1823.000000	
13.597604	1887.000000	
13.618112	1879.000000	
13.638620	1809.000000	
13.659127	1734.000000	
13.679635	1479.000000	
13.700143	1270.000000	
13.720650	1131.000000	
13.741158	1033.000000	
13.761666	978.000000	
13.782174	915.000000	
13.802681	949.000000	
13.823189	892.000000	
13.843697	932.000000	
13.864204	898.000000	
13.884712	913.000000	
13.905220	809.000000	
13.925727	850.000000	
13.946235	938.000000	
13.966743	856.000000	
13.987251	873.000000	
14.007758	863.000000	
14.028266	914.000000	
14.048774	863.000000	
14.069281	825.000000	
14.089789	830.000000	
14.110297	855.000000	
14.130804	854.000000	
14.151312	900.000000	
14.171820	875.000000	
14.192328	894.000000	
14.212835	852.000000	
14.233343	846.000000	
14.253851	869.000000	
14.274358	992.000000	
14.294866	878.000000	
14.315374	943.000000	
14.335881	935.000000	
14.356389	951.000000	
14.376897	942.000000	
14.397405	914.000000	
14.417912	1020.000000	
14.438420	957.000000	
14.458928	1057.000000	
14.479435	1059.000000	
14.499943	1154.000000	
14.520451	988.000000	
14.540958	1089.000000	
14.561466	1135.000000	
14.581974	1204.000000	
14.602482	1262.000000	
14.622989	1221.000000	
14.643497	1245.000000	
14.664005	1244.000000	
14.684512	1151.000000	
14.705020	1040.000000	
14.725528	1036.000000	
14.746035	993.000000	
14.766543	984.000000	
14.787051	941.000000	
14.807559	943.000000	
14.828066	904.000000	
14.848574	913.000000	
14.869082	892.000000	
14.889589	888.000000	
14.910097	913.000000	
14.930605	880.000000	
14.951112	815.000000	
14.971620	851.000000	
14.992128	915.000000	
15.012636	854.000000	
15.033143	895.000000	
15.053651	877.000000	
15.074159	873.000000	
15.094666	861.000000	
15.115174	929.000000	
15.135682	906.000000	
15.156190	876.000000	
15.176697	902.000000	
15.197205	922.000000	
15.217713	930.000000	
15.238220	911.000000	
15.258728	956.000000	
15.279236	974.000000	
15.299743	920.000000	
15.320251	952.000000	
15.340759	982.000000	
15.361267	896.000000	
15.381774	874.000000	
15.402282	897.000000	
15.422790	972.000000	
15.443297	950.000000	
15.463805	919.000000	
15.484313	924.000000	
15.504820	965.000000	
15.525328	930.000000	
15.545836	880.000000	
15.566344	933.000000	
15.586851	1020.000000	
15.607359	984.000000	
15.627867	976.000000	
15.648374	1028.000000	
15.668882	1061.000000	
15.689390	1005.000000	
15.709897	1097.000000	
15.730405	1049.000000	
15.750913	1085.000000	
15.771421	1027.000000	
15.791928	1024.000000	
15.812436	1132.000000	
15.832944	1175.000000	
15.853451	1137.000000	
15.873959	1210.000000	
15.894467	1160.000000	
15.914974	1219.000000	
15.935482	1238.000000	
15.955990	1189.000000	
15.976498	1212.000000	
15.997005	1257.000000	
16.017513	1179.000000	
16.038021	1232.000000	
16.058528	1163.000000	
16.079036	1186.000000	
16.099544	1164.000000	
16.120051	1119.000000	
16.140559	1131.000000	
16.161067	1186.000000	
16.181575	1235.000000	
16.202082	1234.000000	
16.222590	1193.000000	
16.243098	1216.000000	
16.263605	1235.000000	
16.284113	1286.000000	
16.304621	1364.000000	
16.325128	1423.000000	
16.345636	1567.000000	
16.366144	1687.000000	
16.386652	1743.000000	
16.407159	1925.000000	
16.427667	1935.000000	
16.448175	2140.000000	
16.468682	2117.000000	
16.489190	2248.000000	
16.509698	2374.000000	
16.530205	2529.000000	
16.550713	2681.000000	
16.571221	2712.000000	
16.591729	3015.000000	
16.612236	3157.000000	
16.632744	3342.000000	
16.653252	3678.000000	
16.673759	3989.000000	
16.694267	4308.000000	
16.714775	4703.000000	
16.735283	4853.000000	
16.755790	4701.000000	
16.776298	4075.000000	
16.796806	3450.000000	
16.817313	2565.000000	
16.837821	2015.000000	
16.858329	1644.000000	
16.878836	1501.000000	
16.899344	1474.000000	
16.919852	1393.000000	
16.940360	1481.000000	
16.960867	1415.000000	
16.981375	1344.000000	
17.001883	1410.000000	
17.022390	1396.000000	
17.042898	1430.000000	
17.063406	1471.000000	
17.083913	1397.000000	
17.104421	1495.000000	
17.124929	1573.000000	
17.145437	1578.000000	
17.165944	1676.000000	
17.186452	1669.000000	
17.206960	1769.000000	
17.227467	1877.000000	
17.247975	1849.000000	
17.268483	1915.000000	
17.288990	2030.000000	
17.309498	2055.000000	
17.330006	2120.000000	
17.350514	2183.000000	
17.371021	2153.000000	
17.391529	1975.000000	
17.412037	1909.000000	
17.432544	1817.000000	
17.453052	1648.000000	
17.473560	1509.000000	
17.494067	1452.000000	
17.514575	1379.000000	
17.535083	1342.000000	
17.555591	1300.000000	
17.576098	1300.000000	
17.596606	1352.000000	
17.617114	1314.000000	
17.637621	1321.000000	
17.658129	1286.000000	
17.678637	1264.000000	
17.699144	1360.000000	
17.719652	1424.000000	
17.740160	1334.000000	
17.760668	1455.000000	
17.781175	1459.000000	
17.801683	1460.000000	
17.822191	1601.000000	
17.842698	1585.000000	
17.863206	1673.000000	
17.883714	1716.000000	
17.904221	1705.000000	
17.924729	1815.000000	
17.945237	1839.000000	
17.965745	1875.000000	
17.986252	2048.000000	
18.006760	1992.000000	
18.027268	2076.000000	
18.047775	2229.000000	
18.068283	2368.000000	
18.088791	2412.000000	
18.109298	2652.000000	
18.129806	2717.000000	
18.150314	2957.000000	
18.170822	2982.000000	
18.191329	3088.000000	
18.211837	3077.000000	
18.232345	3135.000000	
18.252852	3211.000000	
18.273360	3138.000000	
18.293868	3241.000000	
18.314376	3236.000000	
18.334883	3335.000000	
18.355391	3527.000000	
18.375899	3622.000000	
18.396406	3832.000000	
18.416914	4030.000000	
18.437422	4216.000000	
18.457929	4511.000000	
18.478437	4544.000000	
18.498945	4594.000000	
18.519453	4429.000000	
18.539960	4097.000000	
18.560468	3925.000000	
18.580976	3600.000000	
18.601483	3431.000000	
18.621991	3074.000000	
18.642499	2958.000000	
18.663006	2898.000000	
18.683514	2855.000000	
18.704022	2789.000000	
18.724530	2809.000000	
18.745037	2778.000000	
18.765545	2848.000000	
18.786053	2777.000000	
18.806560	2807.000000	
18.827068	2796.000000	
18.847576	2683.000000	
18.868083	2485.000000	
18.888591	2446.000000	
18.909099	2193.000000	
18.929607	1995.000000	
18.950114	1843.000000	
18.970622	1736.000000	
18.991130	1628.000000	
19.011637	1537.000000	
19.032145	1499.000000	
19.052653	1428.000000	
19.073160	1512.000000	
19.093668	1429.000000	
19.114176	1407.000000	
19.134684	1350.000000	
19.155191	1358.000000	
19.175699	1373.000000	
19.196207	1377.000000	
19.216714	1360.000000	
19.237222	1317.000000	
19.257730	1308.000000	
19.278237	1373.000000	
19.298745	1291.000000	
19.319253	1334.000000	
19.339761	1360.000000	
19.360268	1351.000000	
19.380776	1426.000000	
19.401284	1291.000000	
19.421791	1360.000000	
19.442299	1406.000000	
19.462807	1297.000000	
19.483314	1399.000000	
19.503822	1401.000000	
19.524330	1438.000000	
19.544838	1361.000000	
19.565345	1446.000000	
19.585853	1429.000000	
19.606361	1425.000000	
19.626868	1482.000000	
19.647376	1519.000000	
19.667884	1591.000000	
19.688391	1589.000000	
19.708899	1642.000000	
19.729407	1630.000000	
19.749915	1613.000000	
19.770422	1733.000000	
19.790930	1736.000000	
19.811438	1792.000000	
19.831945	1793.000000	
19.852453	1895.000000	
19.872961	1965.000000	
19.893469	1906.000000	
19.913976	2070.000000	
19.934484	2072.000000	
19.954992	2029.000000	
19.975499	2141.000000	
19.996007	1996.000000	
20.016515	2116.000000	
20.037022	2027.000000	
20.057530	1917.000000	
20.078038	1976.000000	
20.098546	1873.000000	
20.119053	1772.000000	
20.139561	1760.000000	
20.160069	1708.000000	
20.180576	1615.000000	
20.201084	1643.000000	
20.221592	1587.000000	
20.242099	1573.000000	
20.262607	1609.000000	
20.283115	1560.000000	
20.303623	1588.000000	
20.324130	1559.000000	
20.344638	1608.000000	
20.365146	1619.000000	
20.385653	1648.000000	
20.406161	1630.000000	
20.426669	1579.000000	
20.447176	1580.000000	
20.467684	1610.000000	
20.488192	1559.000000	
20.508700	1445.000000	
20.529207	1476.000000	
20.549715	1500.000000	
20.570223	1486.000000	
20.590730	1453.000000	
20.611238	1434.000000	
20.631746	1470.000000	
20.652253	1451.000000	
20.672761	1445.000000	
20.693269	1533.000000	
20.713777	1514.000000	
20.734284	1457.000000	
20.754792	1480.000000	
20.775300	1531.000000	
20.795807	1490.000000	
20.816315	1496.000000	
20.836823	1531.000000	
20.857330	1458.000000	
20.877838	1527.000000	
20.898346	1560.000000	
20.918854	1565.000000	
20.939361	1535.000000	
20.959869	1524.000000	
20.980377	1576.000000	
21.000884	1668.000000	
21.021392	1652.000000	
21.041900	1664.000000	
21.062407	1693.000000	
21.082915	1837.000000	
21.103423	1852.000000	
21.123931	1853.000000	
21.144438	1836.000000	
21.164946	1954.000000	
21.185454	1859.000000	
21.205961	1913.000000	
21.226469	2087.000000	
21.246977	2105.000000	
21.267484	2079.000000	
21.287992	2085.000000	
21.308500	2233.000000	
21.329008	2259.000000	
21.349515	2442.000000	
21.370023	2397.000000	
21.390531	2520.000000	
21.411038	2482.000000	
21.431546	2432.000000	
21.452054	2477.000000	
21.472562	2349.000000	
21.493069	2292.000000	
21.513577	2186.000000	
21.534085	2224.000000	
21.554592	2198.000000	
21.575100	2103.000000	
21.595608	2337.000000	
21.616115	2323.000000	
21.636623	2383.000000	
21.657131	2534.000000	
21.677639	2450.000000	
21.698146	2487.000000	
21.718654	2469.000000	
21.739162	2639.000000	
21.759669	2728.000000	
21.780177	2832.000000	
21.800685	2937.000000	
21.821192	3106.000000	
21.841700	3288.000000	
21.862208	3471.000000	
21.882716	3587.000000	
21.903223	3575.000000	
21.923731	3751.000000	
21.944239	3804.000000	
21.964746	3967.000000	
21.985254	4006.000000	
22.005762	4098.000000	
22.026269	4281.000000	
22.046777	4467.000000	
22.067285	4568.000000	
22.087793	4790.000000	
22.108300	5135.000000	
22.128808	5329.000000	
22.149316	5674.000000	
22.169823	5805.000000	
22.190331	6076.000000	
22.210839	5996.000000	
22.231346	5859.000000	
22.251854	5525.000000	
22.272362	4914.000000	
22.292870	4367.000000	
22.313377	3737.000000	
22.333885	3338.000000	
22.354393	2906.000000	
22.374900	2676.000000	
22.395408	2579.000000	
22.415916	2355.000000	
22.436423	2449.000000	
22.456931	2339.000000	
22.477439	2430.000000	
22.497947	2386.000000	
22.518454	2468.000000	
22.538962	2401.000000	
22.559470	2568.000000	
22.579977	2726.000000	
22.600485	2806.000000	
22.620993	3061.000000	
22.641500	3239.000000	
22.662008	3420.000000	
22.682516	3611.000000	
22.703024	3799.000000	
22.723531	4149.000000	
22.744039	4330.000000	
22.764547	4577.000000	
22.785054	4839.000000	
22.805562	5043.000000	
22.826070	5302.000000	
22.846577	5544.000000	
22.867085	5848.000000	
22.887593	6096.000000	
22.908101	6455.000000	
22.928608	6737.000000	
22.949116	6974.000000	
22.969624	7398.000000	
22.990131	7687.000000	
23.010639	7899.000000	
23.031147	7762.000000	
23.051655	7451.000000	
23.072162	6890.000000	
23.092670	6079.000000	
23.113178	5621.000000	
23.133685	5077.000000	
23.154193	4631.000000	
23.174701	4439.000000	
23.195208	4501.000000	
23.215716	4371.000000	
23.236224	4144.000000	
23.256732	4051.000000	
23.277239	3976.000000	
23.297747	3693.000000	
23.318255	3692.000000	
23.338762	3721.000000	
23.359270	3574.000000	
23.379778	3553.000000	
23.400285	3599.000000	
23.420793	3568.000000	
23.441301	3804.000000	
23.461809	3800.000000	
23.482316	3963.000000	
23.502824	4058.000000	
23.523332	4160.000000	
23.543839	4307.000000	
23.564347	4383.000000	
23.584855	4364.000000	
23.605362	4197.000000	
23.625870	3938.000000	
23.646378	3551.000000	
23.666886	3240.000000	
23.687393	2920.000000	
23.707901	2735.000000	
23.728409	2523.000000	
23.748916	2563.000000	
23.769424	2579.000000	
23.789932	2545.000000	
23.810439	2556.000000	
23.830947	2675.000000	
23.851455	2627.000000	
23.871963	2545.000000	
23.892470	2676.000000	
23.912978	2715.000000	
23.933486	2685.000000	
23.953993	2862.000000	
23.974501	2789.000000	
23.995009	2982.000000	
24.015516	2873.000000	
24.036024	2983.000000	
24.056532	3023.000000	
24.077040	2903.000000	
24.097547	2919.000000	
24.118055	2768.000000	
24.138563	2756.000000	
24.159070	2689.000000	
24.179578	2787.000000	
24.200086	2754.000000	
24.220593	2736.000000	
24.241101	2813.000000	
24.261609	2689.000000	
24.282117	2819.000000	
24.302624	2887.000000	
24.323132	2933.000000	
24.343640	3038.000000	
24.364147	2996.000000	
24.384655	2726.000000	
24.405163	2672.000000	
24.425670	2522.000000	
24.446178	2400.000000	
24.466686	2346.000000	
24.487194	2279.000000	
24.507701	2210.000000	
24.528209	2288.000000	
24.548717	2263.000000	
24.569224	2219.000000	
24.589732	2151.000000	
24.610240	2220.000000	
24.630748	2312.000000	
24.651255	2261.000000	
24.671763	2339.000000	
24.692271	2387.000000	
24.712778	2359.000000	
24.733286	2312.000000	
24.753794	2384.000000	
24.774301	2477.000000	
24.794809	2390.000000	
24.815317	2448.000000	
24.835825	2427.000000	
24.856332	2401.000000	
24.876840	2483.000000	
24.897348	2500.000000	
24.917855	2470.000000	
24.938363	2500.000000	
24.958871	2477.000000	
24.979378	2591.000000	
24.999886	2580.000000	
25.020394	2549.000000	
25.040902	2551.000000	
25.061409	2589.000000	
25.081917	2626.000000	
25.102425	2557.000000	
25.122932	2587.000000	
25.143440	2598.000000	
25.163948	2617.000000	
25.184455	2799.000000	
25.204963	2742.000000	
25.225471	2710.000000	
25.245979	2793.000000	
25.266486	2851.000000	
25.286994	2933.000000	
25.307502	2858.000000	
25.328009	3097.000000	
25.348517	3079.000000	
25.369025	3136.000000	
25.389532	3367.000000	
25.410040	3391.000000	
25.430548	3514.000000	
25.451056	3557.000000	
25.471563	3646.000000	
25.492071	3789.000000	
25.512579	3794.000000	
25.533086	3805.000000	
25.553594	3903.000000	
25.574102	3962.000000	
25.594609	4007.000000	
25.615117	4013.000000	
25.635625	3992.000000	
25.656133	4065.000000	
25.676640	3925.000000	
25.697148	3904.000000	
25.717656	3770.000000	
25.738163	3710.000000	
25.758671	3664.000000	
25.779179	3616.000000	
25.799686	3616.000000	
25.820194	3450.000000	
25.840702	3518.000000	
25.861210	3587.000000	
25.881717	3463.000000	
25.902225	3454.000000	
25.922733	3509.000000	
25.943240	3556.000000	
25.963748	3664.000000	
25.984256	3719.000000	
26.004763	4003.000000	
26.025271	4210.000000	
26.045779	4420.000000	
26.066287	4754.000000	
26.086794	4973.000000	
26.107302	5186.000000	
26.127810	5462.000000	
26.148317	5663.000000	
26.168825	6091.000000	
26.189333	6088.000000	
26.209841	6544.000000	
26.230348	6590.000000	
26.250856	6946.000000	
26.271364	7325.000000	
26.291871	7393.000000	
26.312379	8053.000000	
26.332887	8192.000000	
26.353394	8444.000000	
26.373902	8915.000000	
26.394410	9147.000000	
26.414918	9436.000000	
26.435425	9189.000000	
26.455933	8548.000000	
26.476441	7564.000000	
26.496948	6665.000000	
26.517456	5907.000000	
26.537964	5116.000000	
26.558471	4441.000000	
26.578979	3919.000000	
26.599487	3756.000000	
26.619995	3485.000000	
26.640502	3351.000000	
26.661010	3311.000000	
26.681518	3232.000000	
26.702025	3129.000000	
26.722533	3176.000000	
26.743041	3223.000000	
26.763548	3227.000000	
26.784056	3419.000000	
26.804564	3385.000000	
26.825072	3510.000000	
26.845579	3469.000000	
26.866087	3540.000000	
26.886595	3810.000000	
26.907102	3899.000000	
26.927610	4223.000000	
26.948118	4399.000000	
26.968625	4575.000000	
26.989133	5115.000000	
27.009641	5527.000000	
27.030149	6092.000000	
27.050656	6896.000000	
27.071164	7455.000000	
27.091672	8384.000000	
27.112179	9222.000000	
27.132687	10255.000000	
27.153195	11251.000000	
27.173702	11909.000000	
27.194210	12997.000000	
27.214718	13904.000000	
27.235226	14574.000000	
27.255733	15661.000000	
27.276241	16532.000000	
27.296749	17424.000000	
27.317256	18659.000000	
27.337764	19804.000000	
27.358272	21009.000000	
27.378779	22533.000000	
27.399287	23591.000000	
27.419795	24859.000000	
27.440303	25849.000000	
27.460810	26331.000000	
27.481318	26008.000000	
27.501826	24536.000000	
27.522333	22141.000000	
27.542841	20168.000000	
27.563349	17966.000000	
27.583856	16120.000000	
27.604364	14703.000000	
27.624872	13553.000000	
27.645380	13236.000000	
27.665887	13213.000000	
27.686395	13090.000000	
27.706903	12923.000000	
27.727410	13048.000000	
27.747918	12976.000000	
27.768426	12599.000000	
27.788934	11692.000000	
27.809441	10391.000000	
27.829949	9259.000000	
27.850457	7959.000000	
27.870964	6807.000000	
27.891472	5785.000000	
27.911980	5130.000000	
27.932487	4632.000000	
27.952995	4237.000000	
27.973503	4042.000000	
27.994011	3828.000000	
28.014518	3749.000000	
28.035026	3643.000000	
28.055534	3503.000000	
28.076041	3595.000000	
28.096549	3577.000000	
28.117057	3528.000000	
28.137564	3535.000000	
28.158072	3487.000000	
28.178580	3414.000000	
28.199088	3549.000000	
28.219595	3458.000000	
28.240103	3627.000000	
28.260611	3685.000000	
28.281118	3630.000000	
28.301626	3650.000000	
28.322134	3629.000000	
28.342641	3615.000000	
28.363149	3396.000000	
28.383657	3370.000000	
28.404165	3205.000000	
28.424672	3005.000000	
28.445180	2902.000000	
28.465688	2801.000000	
28.486195	2777.000000	
28.506703	2641.000000	
28.527211	2560.000000	
28.547718	2473.000000	
28.568226	2417.000000	
28.588734	2351.000000	
28.609242	2399.000000	
28.629749	2301.000000	
28.650257	2281.000000	
28.670765	2226.000000	
28.691272	2260.000000	
28.711780	2103.000000	
28.732288	2131.000000	
28.752795	2216.000000	
28.773303	2199.000000	
28.793811	2227.000000	
28.814319	2159.000000	
28.834826	2129.000000	
28.855334	2221.000000	
28.875842	2171.000000	
28.896349	2196.000000	
28.916857	2137.000000	
28.937365	2148.000000	
28.957872	2183.000000	
28.978380	2149.000000	
28.998888	2215.000000	
29.019396	2173.000000	
29.039903	2230.000000	
29.060411	2129.000000	
29.080919	2136.000000	
29.101426	2149.000000	
29.121934	2202.000000	
29.142442	2142.000000	
29.162949	2109.000000	
29.183457	2183.000000	
29.203965	2214.000000	
29.224473	2250.000000	
29.244980	2194.000000	
29.265488	2220.000000	
29.285996	2224.000000	
29.306503	2260.000000	
29.327011	2200.000000	
29.347519	2271.000000	
29.368027	2386.000000	
29.388534	2362.000000	
29.409042	2404.000000	
29.429550	2314.000000	
29.450057	2327.000000	
29.470565	2363.000000	
29.491073	2422.000000	
29.511580	2296.000000	
29.532088	2483.000000	
29.552596	2557.000000	
29.573104	2567.000000	
29.593611	2524.000000	
29.614119	2599.000000	
29.634627	2646.000000	
29.655134	2724.000000	
29.675642	2684.000000	
29.696150	2724.000000	
29.716657	2679.000000	
29.737165	2847.000000	
29.757673	2848.000000	
29.778181	3054.000000	
29.798688	3071.000000	
29.819196	3002.000000	
29.839704	3130.000000	
29.860211	3233.000000	
29.880719	3232.000000	
29.901227	3418.000000	
29.921734	3552.000000	
29.942242	3591.000000	
29.962750	3635.000000	
29.983258	3496.000000	
30.003765	3682.000000	
30.024273	3758.000000	
30.044781	3621.000000	
30.065288	3592.000000	
30.085796	3406.000000	
30.106304	3457.000000	
30.126811	3250.000000	
30.147319	3181.000000	
30.167827	3011.000000	
30.188335	2892.000000	
30.208842	2798.000000	
30.229350	2679.000000	
30.249858	2560.000000	
30.270365	2450.000000	
30.290873	2368.000000	
30.311381	2484.000000	
30.331888	2424.000000	
30.352396	2298.000000	
30.372904	2226.000000	
30.393412	2294.000000	
30.413919	2276.000000	
30.434427	2253.000000	
30.454935	2229.000000	
30.475442	2230.000000	
30.495950	2334.000000	
30.516458	2200.000000	
30.536965	2252.000000	
30.557473	2075.000000	
30.577981	2249.000000	
30.598489	2154.000000	
30.618996	2057.000000	
30.639504	2003.000000	
30.660012	2031.000000	
30.680519	2169.000000	
30.701027	2025.000000	
30.721535	1887.000000	
30.742042	1957.000000	
30.762550	1918.000000	
30.783058	1897.000000	
30.803566	1922.000000	
30.824073	1976.000000	
30.844581	1938.000000	
30.865089	1847.000000	
30.885596	1939.000000	
30.906104	1824.000000	
30.926612	1761.000000	
30.947120	1824.000000	
30.967627	1884.000000	
30.988135	1878.000000	
31.008643	1891.000000	
31.029150	1987.000000	
31.049658	2010.000000	
31.070166	2041.000000	
31.090673	2074.000000	
31.111181	2080.000000	
31.131689	2100.000000	
31.152197	2194.000000	
31.172704	2157.000000	
31.193212	2259.000000	
31.213720	2418.000000	
31.234227	2440.000000	
31.254735	2651.000000	
31.275243	2735.000000	
31.295750	2841.000000	
31.316258	2872.000000	
31.336766	3020.000000	
31.357274	3001.000000	
31.377781	3135.000000	
31.398289	3203.000000	
31.418797	3410.000000	
31.439304	3425.000000	
31.459812	3526.000000	
31.480320	3582.000000	
31.500827	3591.000000	
31.521335	3520.000000	
31.541843	3760.000000	
31.562351	3874.000000	
31.582858	3959.000000	
31.603366	3991.000000	
31.623874	4128.000000	
31.644381	4247.000000	
31.664889	4017.000000	
31.685397	3773.000000	
31.705904	3453.000000	
31.726412	3250.000000	
31.746920	3076.000000	
31.767428	2790.000000	
31.787935	2699.000000	
31.808443	2657.000000	
31.828951	2508.000000	
31.849458	2484.000000	
31.869966	2476.000000	
31.890474	2452.000000	
31.910981	2494.000000	
31.931489	2555.000000	
31.951997	2609.000000	
31.972505	2622.000000	
31.993012	2625.000000	
32.013520	2697.000000	
32.034028	2725.000000	
32.054535	2670.000000	
32.075043	2673.000000	
32.095551	2602.000000	
32.116058	2647.000000	
32.136566	2443.000000	
32.157074	2438.000000	
32.177582	2400.000000	
32.198089	2349.000000	
32.218597	2314.000000	
32.239105	2310.000000	
32.259612	2258.000000	
32.280120	2417.000000	
32.300628	2218.000000	
32.321135	2232.000000	
32.341643	2372.000000	
32.362151	2250.000000	
32.382659	2359.000000	
32.403166	2438.000000	
32.423674	2497.000000	
32.444182	2401.000000	
32.464689	2371.000000	
32.485197	2482.000000	
32.505705	2544.000000	
32.526213	2474.000000	
32.546720	2633.000000	
32.567228	2648.000000	
32.587736	2788.000000	
32.608243	2759.000000	
32.628751	2867.000000	
32.649259	2955.000000	
32.669766	3013.000000	
32.690274	3234.000000	
32.710782	3271.000000	
32.731290	3418.000000	
32.751797	3320.000000	
32.772305	3493.000000	
32.792813	3521.000000	
32.813320	3572.000000	
32.833828	3726.000000	
32.854336	3712.000000	
32.874843	3673.000000	
32.895351	3591.000000	
32.915859	3522.000000	
32.936367	3705.000000	
32.956874	3700.000000	
32.977382	3647.000000	
32.997890	3739.000000	
33.018397	3846.000000	
33.038905	3738.000000	
33.059413	3904.000000	
33.079920	3857.000000	
33.100428	3762.000000	
33.120936	3588.000000	
33.141444	3719.000000	
33.161951	3514.000000	
33.182459	3286.000000	
33.202967	3255.000000	
33.223474	3192.000000	
33.243982	3100.000000	
33.264490	3105.000000	
33.284997	3017.000000	
33.305505	3027.000000	
33.326013	2932.000000	
33.346521	3014.000000	
33.367028	3023.000000	
33.387536	2853.000000	
33.408044	2970.000000	
33.428551	2873.000000	
33.449059	3071.000000	
33.469567	3089.000000	
33.490074	3133.000000	
33.510582	3046.000000	
33.531090	3034.000000	
33.551598	2983.000000	
33.572105	3130.000000	
33.592613	2817.000000	
33.613121	2852.000000	
33.633628	2869.000000	
33.654136	2742.000000	
33.674644	2591.000000	
33.695151	2589.000000	
33.715659	2497.000000	
33.736167	2432.000000	
33.756675	2279.000000	
33.777182	2395.000000	
33.797690	2342.000000	
33.818198	2241.000000	
33.838705	2218.000000	
33.859213	2149.000000	
33.879721	2158.000000	
33.900228	2133.000000	
33.920736	2067.000000	
33.941244	2071.000000	
33.961752	2070.000000	
33.982259	1941.000000	
34.002767	1938.000000	
34.023275	1907.000000	
34.043782	1843.000000	
34.064290	1897.000000	
34.084798	1920.000000	
34.105306	1894.000000	
34.125813	1837.000000	
34.146321	1896.000000	
34.166829	1834.000000	
34.187336	1819.000000	
34.207844	1836.000000	
34.228352	1758.000000	
34.248859	1799.000000	
34.269367	1707.000000	
34.289875	1702.000000	
34.310383	1730.000000	
34.330890	1643.000000	
34.351398	1671.000000	
34.371906	1756.000000	
34.392413	1661.000000	
34.412921	1606.000000	
34.433429	1654.000000	
34.453936	1582.000000	
34.474444	1628.000000	
34.494952	1546.000000	
34.515460	1599.000000	
34.535967	1631.000000	
34.556475	1633.000000	
34.576983	1626.000000	
34.597490	1554.000000	
34.617998	1641.000000	
34.638506	1577.000000	
34.659013	1617.000000	
34.679521	1609.000000	
34.700029	1643.000000	
34.720537	1695.000000	
34.741044	1634.000000	
34.761552	1613.000000	
34.782060	1715.000000	
34.802567	1727.000000	
34.823075	1694.000000	
34.843583	1741.000000	
34.864090	1685.000000	
34.884598	1796.000000	
34.905106	1725.000000	
34.925614	1792.000000	
34.946121	1747.000000	
34.966629	1823.000000	
34.987137	1746.000000	
35.007644	1745.000000	
35.028152	1811.000000	
35.048660	1755.000000	
35.069167	1696.000000	
35.089675	1678.000000	
35.110183	1715.000000	
35.130691	1772.000000	
35.151198	1726.000000	
35.171706	1750.000000	
35.192214	1706.000000	
35.212721	1743.000000	
35.233229	1806.000000	
35.253737	1766.000000	
35.274244	1673.000000	
35.294752	1658.000000	
35.315260	1665.000000	
35.335768	1709.000000	
35.356275	1660.000000	
35.376783	1837.000000	
35.397291	1816.000000	
35.417798	1858.000000	
35.438306	1853.000000	
35.458814	1851.000000	
35.479321	1959.000000	
35.499829	1933.000000	
35.520337	1962.000000	
35.540845	1956.000000	
35.561352	2023.000000	
35.581860	2035.000000	
35.602368	2098.000000	
35.622875	2116.000000	
35.643383	2091.000000	
35.663891	2126.000000	
35.684399	2174.000000	
35.704906	2103.000000	
35.725414	2036.000000	
35.745922	2100.000000	
35.766429	1971.000000	
35.786937	1896.000000	
35.807445	1908.000000	
35.827952	1800.000000	
35.848460	1757.000000	
35.868968	1732.000000	
35.889476	1718.000000	
35.909983	1570.000000	
35.930491	1641.000000	
35.950999	1616.000000	
35.971506	1629.000000	
35.992014	1541.000000	
36.012522	1582.000000	
36.033029	1571.000000	
36.053537	1494.000000	
36.074045	1640.000000	
36.094553	1647.000000	
36.115060	1564.000000	
36.135568	1601.000000	
36.156076	1557.000000	
36.176583	1635.000000	
36.197091	1555.000000	
36.217599	1642.000000	
36.238106	1652.000000	
36.258614	1697.000000	
36.279122	1797.000000	
36.299630	1654.000000	
36.320137	1700.000000	
36.340645	1759.000000	
36.361153	1731.000000	
36.381660	1806.000000	
36.402168	1769.000000	
36.422676	1766.000000	
36.443183	1812.000000	
36.463691	1813.000000	
36.484199	1770.000000	
36.504707	1852.000000	
36.525214	1898.000000	
36.545722	1885.000000	
36.566230	1850.000000	
36.586737	1930.000000	
36.607245	2043.000000	
36.627753	1907.000000	
36.648260	2013.000000	
36.668768	2019.000000	
36.689276	1940.000000	
36.709784	2046.000000	
36.730291	2118.000000	
36.750799	2144.000000	
36.771307	2124.000000	
36.791814	2081.000000	
36.812322	2081.000000	
36.832830	2150.000000	
36.853337	2026.000000	
36.873845	2098.000000	
36.894353	2072.000000	
36.914861	1966.000000	
36.935368	1971.000000	
36.955876	1971.000000	
36.976384	1936.000000	
36.996891	1935.000000	
37.017399	1937.000000	
37.037907	1912.000000	
37.058414	1917.000000	
37.078922	1861.000000	
37.099430	1887.000000	
37.119938	1891.000000	
37.140445	1950.000000	
37.160953	2049.000000	
37.181461	1930.000000	
37.201968	2088.000000	
37.222476	2062.000000	
37.242984	2039.000000	
37.263492	2022.000000	
37.283999	2089.000000	
37.304507	2055.000000	
37.325015	2121.000000	
37.345522	2114.000000	
37.366030	2168.000000	
37.386538	2056.000000	
37.407045	2048.000000	
37.427553	1942.000000	
37.448061	1952.000000	
37.468569	1958.000000	
37.489076	2000.000000	
37.509584	1909.000000	
37.530092	1877.000000	
37.550599	1892.000000	
37.571107	1879.000000	
37.591615	1931.000000	
37.612122	1830.000000	
37.632630	1822.000000	
37.653138	1810.000000	
37.673646	1820.000000	
37.694153	1879.000000	
37.714661	1839.000000	
37.735169	1885.000000	
37.755676	1778.000000	
37.776184	1800.000000	
37.796692	1786.000000	
37.817199	1746.000000	
37.837707	1654.000000	
37.858215	1693.000000	
37.878723	1748.000000	
37.899230	1716.000000	
37.919738	1749.000000	
37.940246	1705.000000	
37.960753	1754.000000	
37.981261	1714.000000	
38.001769	1731.000000	
38.022276	1795.000000	
38.042784	1779.000000	
38.063292	1827.000000	
38.083800	1858.000000	
38.104307	1900.000000	
38.124815	1935.000000	
38.145323	1919.000000	
38.165830	1882.000000	
38.186338	1894.000000	
38.206846	1907.000000	
38.227353	1905.000000	
38.247861	1907.000000	
38.268369	1976.000000	
38.288877	1954.000000	
38.309384	1875.000000	
38.329892	1869.000000	
38.350400	1850.000000	
38.370907	1823.000000	
38.391415	1783.000000	
38.411923	1778.000000	
38.432430	1776.000000	
38.452938	1645.000000	
38.473446	1724.000000	
38.493954	1636.000000	
38.514461	1604.000000	
38.534969	1544.000000	
38.555477	1588.000000	
38.575984	1566.000000	
38.596492	1546.000000	
38.617000	1521.000000	
38.637507	1488.000000	
38.658015	1529.000000	
38.678523	1519.000000	
38.699031	1558.000000	
38.719538	1562.000000	
38.740046	1549.000000	
38.760554	1579.000000	
38.781061	1597.000000	
38.801569	1547.000000	
38.822077	1577.000000	
38.842585	1585.000000	
38.863092	1641.000000	
38.883600	1632.000000	
38.904108	1696.000000	
38.924615	1604.000000	
38.945123	1713.000000	
38.965631	1610.000000	
38.986138	1568.000000	
39.006646	1693.000000	
39.027154	1697.000000	
39.047662	1700.000000	
39.068169	1745.000000	
39.088677	1855.000000	
39.109185	1841.000000	
39.129692	1845.000000	
39.150200	1854.000000	
39.170708	1853.000000	
39.191215	1910.000000	
39.211723	1966.000000	
39.232231	1964.000000	
39.252739	1935.000000	
39.273246	2072.000000	
39.293754	1938.000000	
39.314262	2055.000000	
39.334769	2070.000000	
39.355277	1968.000000	
39.375785	2010.000000	
39.396292	2039.000000	
39.416800	2030.000000	
39.437308	2067.000000	
39.457816	2056.000000	
39.478323	2022.000000	
39.498831	1998.000000	
39.519339	1982.000000	
39.539846	1895.000000	
39.560354	1829.000000	
39.580862	1823.000000	
39.601369	1768.000000	
39.621877	1717.000000	
39.642385	1653.000000	
39.662893	1605.000000	
39.683400	1604.000000	
39.703908	1556.000000	
39.724416	1569.000000	
39.744923	1546.000000	
39.765431	1576.000000	
39.785939	1562.000000	
39.806446	1548.000000	
39.826954	1503.000000	
39.847462	1595.000000	
39.867970	1520.000000	
39.888477	1628.000000	
39.908985	1579.000000	
39.929493	1690.000000	
39.950000	1635.000000	
39.970508	1614.000000	
39.991016	1735.000000	
40.011523	1658.000000	
40.032031	1751.000000	
40.052539	1813.000000	
40.073047	1783.000000	
40.093554	1826.000000	
40.114062	1829.000000	
40.134570	1802.000000	
40.155077	1941.000000	
40.175585	1975.000000	
40.196093	1931.000000	
40.216600	2017.000000	
40.237108	2118.000000	
40.257616	2101.000000	
40.278124	2076.000000	
40.298631	2105.000000	
40.319139	2167.000000	
40.339647	2202.000000	
40.360154	2283.000000	
40.380662	2259.000000	
40.401170	2206.000000	
40.421678	2286.000000	
40.442185	2199.000000	
40.462693	2157.000000	
40.483201	2204.000000	
40.503708	2117.000000	
40.524216	2083.000000	
40.544724	2064.000000	
40.565231	2128.000000	
40.585739	1937.000000	
40.606247	1988.000000	
40.626755	1969.000000	
40.647262	1874.000000	
40.667770	1829.000000	
40.688278	1942.000000	
40.708785	1910.000000	
40.729293	1830.000000	
40.749801	1958.000000	
40.770308	1837.000000	
40.790816	1886.000000	
40.811324	1871.000000	
40.831832	1880.000000	
40.852339	1899.000000	
40.872847	1893.000000	
40.893355	1949.000000	
40.913862	1918.000000	
40.934370	1927.000000	
40.954878	1954.000000	
40.975385	1943.000000	
40.995893	1908.000000	
41.016401	1994.000000	
41.036909	1961.000000	
41.057416	1965.000000	
41.077924	1907.000000	
41.098432	1972.000000	
41.118939	1940.000000	
41.139447	1856.000000	
41.159955	1848.000000	
41.180462	1878.000000	
41.200970	1894.000000	
41.221478	1863.000000	
41.241986	1927.000000	
41.262493	1865.000000	
41.283001	1836.000000	
41.303509	1844.000000	
41.324016	1877.000000	
41.344524	1841.000000	
41.365032	1881.000000	
41.385539	1868.000000	
41.406047	1813.000000	
41.426555	1828.000000	
41.447063	1723.000000	
41.467570	1741.000000	
41.488078	1824.000000	
41.508586	1766.000000	
41.529093	1683.000000	
41.549601	1682.000000	
41.570109	1721.000000	
41.590616	1695.000000	
41.611124	1698.000000	
41.631632	1646.000000	
41.652140	1637.000000	
41.672647	1609.000000	
41.693155	1577.000000	
41.713663	1610.000000	
41.734170	1546.000000	
41.754678	1551.000000	
41.775186	1527.000000	
41.795693	1533.000000	
41.816201	1427.000000	
41.836709	1528.000000	
41.857217	1419.000000	
41.877724	1458.000000	
41.898232	1419.000000	
41.918740	1402.000000	
41.939247	1434.000000	
41.959755	1338.000000	
41.980263	1385.000000	
42.000771	1287.000000	
42.021278	1361.000000	
42.041786	1315.000000	
42.062294	1361.000000	
42.082801	1264.000000	
42.103309	1285.000000	
42.123817	1368.000000	
42.144324	1253.000000	
42.164832	1263.000000	
42.185340	1292.000000	
42.205848	1276.000000	
42.226355	1302.000000	
42.246863	1324.000000	
42.267371	1370.000000	
42.287878	1278.000000	
42.308386	1309.000000	
42.328894	1282.000000	
42.349401	1277.000000	
42.369909	1271.000000	
42.390417	1303.000000	
42.410925	1317.000000	
42.431432	1252.000000	
42.451940	1307.000000	
42.472448	1297.000000	
42.492955	1302.000000	
42.513463	1293.000000	
42.533971	1300.000000	
42.554478	1339.000000	
42.574986	1277.000000	
42.595494	1273.000000	
42.616002	1259.000000	
42.636509	1296.000000	
42.657017	1299.000000	
42.677525	1336.000000	
42.698032	1317.000000	
42.718540	1417.000000	
42.739048	1365.000000	
42.759555	1329.000000	
42.780063	1333.000000	
42.800571	1319.000000	
42.821079	1414.000000	
42.841586	1372.000000	
42.862094	1406.000000	
42.882602	1429.000000	
42.903109	1359.000000	
42.923617	1389.000000	
42.944125	1395.000000	
42.964632	1404.000000	
42.985140	1394.000000	
43.005648	1410.000000	
43.026156	1375.000000	
43.046663	1329.000000	
43.067171	1372.000000	
43.087679	1287.000000	
43.108186	1316.000000	
43.128694	1319.000000	
43.149202	1267.000000	
43.169709	1350.000000	
43.190217	1218.000000	
43.210725	1367.000000	
43.231233	1390.000000	
43.251740	1337.000000	
43.272248	1314.000000	
43.292756	1298.000000	
43.313263	1343.000000	
43.333771	1367.000000	
43.354279	1402.000000	
43.374786	1400.000000	
43.395294	1405.000000	
43.415802	1358.000000	
43.436310	1368.000000	
43.456817	1444.000000	
43.477325	1424.000000	
43.497833	1434.000000	
43.518340	1325.000000	
43.538848	1400.000000	
43.559356	1450.000000	
43.579864	1341.000000	
43.600371	1347.000000	
43.620879	1393.000000	
43.641387	1402.000000	
43.661894	1372.000000	
43.682402	1322.000000	
43.702910	1340.000000	
43.723417	1259.000000	
43.743925	1433.000000	
43.764433	1324.000000	
43.784941	1324.000000	
43.805448	1350.000000	
43.825956	1341.000000	
43.846464	1364.000000	
43.866971	1386.000000	
43.887479	1398.000000	
43.907987	1414.000000	
43.928494	1362.000000	
43.949002	1372.000000	
43.969510	1356.000000	
43.990018	1392.000000	
44.010525	1471.000000	
44.031033	1519.000000	
44.051541	1427.000000	
44.072048	1394.000000	
44.092556	1442.000000	
44.113064	1423.000000	
44.133571	1429.000000	
44.154079	1453.000000	
44.174587	1545.000000	
44.195095	1443.000000	
44.215602	1480.000000	
44.236110	1508.000000	
44.256618	1414.000000	
44.277125	1479.000000	
44.297633	1533.000000	
44.318141	1453.000000	
44.338648	1481.000000	
44.359156	1459.000000	
44.379664	1492.000000	
44.400172	1458.000000	
44.420679	1360.000000	
44.441187	1391.000000	
44.461695	1420.000000	
44.482202	1436.000000	
44.502710	1374.000000	
44.523218	1447.000000	
44.543725	1363.000000	
44.564233	1474.000000	
44.584741	1354.000000	
44.605249	1378.000000	
44.625756	1398.000000	
44.646264	1332.000000	
44.666772	1442.000000	
44.687279	1348.000000	
44.707787	1359.000000	
44.728295	1351.000000	
44.748802	1406.000000	
44.769310	1326.000000	
44.789818	1373.000000	
44.810326	1321.000000	
44.830833	1348.000000	
44.851341	1419.000000	
44.871849	1439.000000	
44.892356	1395.000000	
44.912864	1359.000000	
44.933372	1428.000000	
44.953879	1565.000000	
44.974387	1461.000000	
44.994895	1576.000000	
45.015403	1601.000000	
45.035910	1605.000000	
45.056418	1685.000000	
45.076926	1693.000000	
45.097433	1697.000000	
45.117941	1723.000000	
45.138449	1781.000000	
45.158957	1791.000000	
45.179464	1875.000000	
45.199972	1862.000000	
45.220480	1898.000000	
45.240987	1941.000000	
45.261495	1947.000000	
45.282003	2048.000000	
45.302510	2104.000000	
45.323018	2002.000000	
45.343526	2027.000000	
45.364034	2015.000000	
45.384541	2156.000000	
45.405049	1991.000000	
45.425557	1856.000000	
45.446064	1853.000000	
45.466572	1799.000000	
45.487080	1763.000000	
45.507587	1657.000000	
45.528095	1607.000000	
45.548603	1649.000000	
45.569111	1573.000000	
45.589618	1509.000000	
45.610126	1575.000000	
45.630634	1573.000000	
45.651141	1537.000000	
45.671649	1562.000000	
45.692157	1542.000000	
45.712664	1506.000000	
45.733172	1544.000000	
45.753680	1565.000000	
45.774188	1564.000000	
45.794695	1594.000000	
45.815203	1520.000000	
45.835711	1590.000000	
45.856218	1635.000000	
45.876726	1572.000000	
45.897234	1566.000000	
45.917741	1570.000000	
45.938249	1482.000000	
45.958757	1568.000000	
45.979265	1499.000000	
45.999772	1507.000000	
46.020280	1450.000000	
46.040788	1467.000000	
46.061295	1517.000000	
46.081803	1505.000000	
46.102311	1483.000000	
46.122818	1480.000000	
46.143326	1489.000000	
46.163834	1439.000000	
46.184342	1409.000000	
46.204849	1537.000000	
46.225357	1504.000000	
46.245865	1487.000000	
46.266372	1417.000000	
46.286880	1464.000000	
46.307388	1517.000000	
46.327895	1465.000000	
46.348403	1533.000000	
46.368911	1395.000000	
46.389419	1427.000000	
46.409926	1368.000000	
46.430434	1372.000000	
46.450942	1394.000000	
46.471449	1387.000000	
46.491957	1320.000000	
46.512465	1350.000000	
46.532972	1350.000000	
46.553480	1354.000000	
46.573988	1319.000000	
46.594496	1278.000000	
46.615003	1366.000000	
46.635511	1327.000000	
46.656019	1258.000000	
46.676526	1382.000000	
46.697034	1352.000000	
46.717542	1288.000000	
46.738050	1359.000000	
46.758557	1296.000000	
46.779065	1273.000000	
46.799573	1340.000000	
46.820080	1318.000000	
46.840588	1342.000000	
46.861096	1319.000000	
46.881603	1313.000000	
46.902111	1247.000000	
46.922619	1296.000000	
46.943127	1231.000000	
46.963634	1297.000000	
46.984142	1346.000000	
47.004650	1286.000000	
47.025157	1194.000000	
47.045665	1298.000000	
47.066173	1298.000000	
47.086680	1217.000000	
47.107188	1187.000000	
47.127696	1209.000000	
47.148204	1286.000000	
47.168711	1230.000000	
47.189219	1258.000000	
47.209727	1253.000000	
47.230234	1267.000000	
47.250742	1268.000000	
47.271250	1186.000000	
47.291757	1298.000000	
47.312265	1246.000000	
47.332773	1224.000000	
47.353281	1239.000000	
47.373788	1302.000000	
47.394296	1314.000000	
47.414804	1330.000000	
47.435311	1302.000000	
47.455819	1323.000000	
47.476327	1292.000000	
47.496834	1401.000000	
47.517342	1325.000000	
47.537850	1333.000000	
47.558358	1372.000000	
47.578865	1318.000000	
47.599373	1342.000000	
47.619881	1328.000000	
47.640388	1355.000000	
47.660896	1355.000000	
47.681404	1350.000000	
47.701911	1421.000000	
47.722419	1302.000000	
47.742927	1280.000000	
47.763435	1337.000000	
47.783942	1312.000000	
47.804450	1311.000000	
47.824958	1244.000000	
47.845465	1334.000000	
47.865973	1300.000000	
47.886481	1278.000000	
47.906988	1274.000000	
47.927496	1259.000000	
47.948004	1184.000000	
47.968512	1230.000000	
47.989019	1243.000000	
48.009527	1212.000000	
48.030035	1234.000000	
48.050542	1158.000000	
48.071050	1236.000000	
48.091558	1250.000000	
48.112065	1220.000000	
48.132573	1209.000000	
48.153081	1214.000000	
48.173589	1169.000000	
48.194096	1209.000000	
48.214604	1254.000000	
48.235112	1264.000000	
48.255619	1175.000000	
48.276127	1236.000000	
48.296635	1256.000000	
48.317143	1295.000000	
48.337650	1197.000000	
48.358158	1258.000000	
48.378666	1278.000000	
48.399173	1310.000000	
48.419681	1220.000000	
48.440189	1260.000000	
48.460696	1254.000000	
48.481204	1238.000000	
48.501712	1317.000000	
48.522220	1307.000000	
48.542727	1331.000000	
48.563235	1308.000000	
48.583743	1387.000000	
48.604250	1424.000000	
48.624758	1449.000000	
48.645266	1380.000000	
48.665773	1366.000000	
48.686281	1432.000000	
48.706789	1433.000000	
48.727297	1446.000000	
48.747804	1421.000000	
48.768312	1421.000000	
48.788820	1483.000000	
48.809327	1466.000000	
48.829835	1474.000000	
48.850343	1491.000000	
48.870850	1428.000000	
48.891358	1389.000000	
48.911866	1340.000000	
48.932374	1390.000000	
48.952881	1330.000000	
48.973389	1320.000000	
48.993897	1369.000000	
49.014404	1366.000000	
49.034912	1349.000000	
49.055420	1323.000000	
49.075927	1299.000000	
49.096435	1319.000000	
49.116943	1353.000000	
49.137451	1345.000000	
49.157958	1323.000000	
49.178466	1332.000000	
49.198974	1385.000000	
49.219481	1404.000000	
49.239989	1375.000000	
49.260497	1364.000000	
49.281004	1377.000000	
49.301512	1405.000000	
49.322020	1445.000000	
49.342528	1464.000000	
49.363035	1525.000000	
49.383543	1634.000000	
49.404051	1568.000000	
49.424558	1654.000000	
49.445066	1714.000000	
49.465574	1726.000000	
49.486081	1768.000000	
49.506589	1883.000000	
49.527097	1884.000000	
49.547605	1873.000000	
49.568112	1999.000000	
49.588620	1989.000000	
49.609128	2054.000000	
49.629635	2121.000000	
49.650143	2101.000000	
49.670651	2097.000000	
49.691158	2221.000000	
49.711666	2219.000000	
49.732174	2158.000000	
49.752682	2040.000000	
49.773189	2148.000000	
49.793697	2140.000000	
49.814205	2026.000000	
49.834712	1978.000000	
49.855220	1997.000000	
49.875728	1956.000000	
49.896236	1880.000000	
49.916743	1835.000000	
49.937251	1788.000000	
49.957759	1666.000000	
49.978266	1744.000000	
49.998774	1658.000000	
50.019282	1607.000000	
50.039789	1524.000000	
50.060297	1547.000000	
50.080805	1438.000000	
50.101313	1506.000000	
50.121820	1547.000000	
50.142328	1476.000000	
50.162836	1422.000000	
50.183343	1390.000000	
50.203851	1442.000000	
50.224359	1391.000000	
50.244866	1341.000000	
50.265374	1426.000000	
50.285882	1320.000000	
50.306390	1342.000000	
50.326897	1366.000000	
50.347405	1324.000000	
50.367913	1339.000000	
50.388420	1293.000000	
50.408928	1307.000000	
50.429436	1277.000000	
50.449943	1326.000000	
50.470451	1262.000000	
50.490959	1301.000000	
50.511467	1287.000000	
50.531974	1265.000000	
50.552482	1282.000000	
50.572990	1214.000000	
50.593497	1275.000000	
50.614005	1232.000000	
50.634513	1266.000000	
50.655020	1183.000000	
50.675528	1173.000000	
50.696036	1197.000000	
50.716544	1281.000000	
50.737051	1188.000000	
50.757559	1272.000000	
50.778067	1217.000000	
50.798574	1314.000000	
50.819082	1284.000000	
50.839590	1318.000000	
50.860097	1263.000000	
50.880605	1345.000000	
50.901113	1301.000000	
50.921621	1338.000000	
50.942128	1435.000000	
50.962636	1341.000000	
50.983144	1390.000000	
51.003651	1365.000000	
51.024159	1393.000000	
51.044667	1397.000000	
51.065174	1403.000000	
51.085682	1420.000000	
51.106190	1450.000000	
51.126698	1490.000000	
51.147205	1478.000000	
51.167713	1449.000000	
51.188221	1477.000000	
51.208728	1455.000000	
51.229236	1559.000000	
51.249744	1462.000000	
51.270251	1467.000000	
51.290759	1429.000000	
51.311267	1457.000000	
51.331775	1442.000000	
51.352282	1435.000000	
51.372790	1408.000000	
51.393298	1489.000000	
51.413805	1482.000000	
51.434313	1358.000000	
51.454821	1485.000000	
51.475329	1398.000000	
51.495836	1451.000000	
51.516344	1377.000000	
51.536852	1276.000000	
51.557359	1286.000000	
51.577867	1342.000000	
51.598375	1380.000000	
51.618882	1385.000000	
51.639390	1276.000000	
51.659898	1244.000000	
51.680406	1213.000000	
51.700913	1274.000000	
51.721421	1285.000000	
51.741929	1296.000000	
51.762436	1315.000000	
51.782944	1322.000000	
51.803452	1291.000000	
51.823959	1281.000000	
51.844467	1277.000000	
51.864975	1283.000000	
51.885483	1244.000000	
51.905990	1269.000000	
51.926498	1275.000000	
51.947006	1247.000000	
51.967513	1325.000000	
51.988021	1285.000000	
52.008529	1313.000000	
52.029036	1296.000000	
52.049544	1273.000000	
52.070052	1296.000000	
52.090560	1270.000000	
52.111067	1277.000000	
52.131575	1212.000000	
52.152083	1252.000000	
52.172590	1210.000000	
52.193098	1173.000000	
52.213606	1193.000000	
52.234113	1211.000000	
52.254621	1145.000000	
52.275129	1141.000000	
52.295637	1203.000000	
52.316144	1217.000000	
52.336652	1205.000000	
52.357160	1180.000000	
52.377667	1230.000000	
52.398175	1092.000000	
52.418683	1149.000000	
52.439190	1093.000000	
52.459698	1119.000000	
52.480206	1108.000000	
52.500714	1122.000000	
52.521221	1172.000000	
52.541729	1105.000000	
52.562237	1165.000000	
52.582744	1145.000000	
52.603252	1065.000000	
52.623760	1157.000000	
52.644267	1114.000000	
52.664775	1074.000000	
52.685283	1037.000000	
52.705791	1058.000000	
52.726298	1144.000000	
52.746806	1060.000000	
52.767314	1089.000000	
52.787821	1190.000000	
52.808329	1135.000000	
52.828837	1084.000000	
52.849344	1061.000000	
52.869852	1095.000000	
52.890360	1100.000000	
52.910868	1097.000000	
52.931375	1071.000000	
52.951883	1093.000000	
52.972391	1101.000000	
52.992898	1066.000000	
53.013406	1073.000000	
53.033914	1068.000000	
53.054422	1051.000000	
53.074929	1089.000000	
53.095437	1093.000000	
53.115945	1096.000000	
53.136452	1091.000000	
53.156960	1029.000000	
53.177468	1052.000000	
53.197975	1080.000000	
53.218483	1166.000000	
53.238991	1039.000000	
53.259499	1056.000000	
53.280006	1077.000000	
53.300514	1091.000000	
53.321022	1031.000000	
53.341529	1091.000000	
53.362037	1138.000000	
53.382545	1063.000000	
53.403052	1096.000000	
53.423560	1131.000000	
53.444068	1016.000000	
53.464576	1090.000000	
53.485083	1083.000000	
53.505591	1098.000000	
53.526099	1168.000000	
53.546606	1169.000000	
53.567114	1118.000000	
53.587622	1094.000000	
53.608129	1114.000000	
53.628637	1129.000000	
53.649145	1130.000000	
53.669653	1133.000000	
53.690160	1146.000000	
53.710668	1125.000000	
53.731176	1151.000000	
53.751683	1190.000000	
53.772191	1214.000000	
53.792699	1153.000000	
53.813206	1095.000000	
53.833714	1121.000000	
53.854222	1109.000000	
53.874730	1174.000000	
53.895237	1103.000000	
53.915745	1172.000000	
53.936253	1138.000000	
53.956760	1132.000000	
53.977268	1128.000000	
53.997776	1172.000000	
54.018283	1094.000000	
54.038791	1141.000000	
54.059299	1213.000000	
54.079807	1194.000000	
54.100314	1189.000000	
54.120822	1255.000000	
54.141330	1183.000000	
54.161837	1254.000000	
54.182345	1191.000000	
54.202853	1193.000000	
54.223360	1245.000000	
54.243868	1250.000000	
54.264376	1288.000000	
54.284884	1262.000000	
54.305391	1233.000000	
54.325899	1222.000000	
54.346407	1226.000000	
54.366914	1278.000000	
54.387422	1223.000000	
54.407930	1344.000000	
54.428437	1217.000000	
54.448945	1261.000000	
54.469453	1225.000000	
54.489961	1231.000000	
54.510468	1259.000000	
54.530976	1191.000000	
54.551484	1209.000000	
54.571991	1238.000000	
54.592499	1152.000000	
54.613007	1233.000000	
54.633515	1094.000000	
54.654022	1087.000000	
54.674530	1091.000000	
54.695038	1104.000000	
54.715545	1096.000000	
54.736053	1086.000000	
54.756561	1107.000000	
54.777068	1109.000000	
54.797576	1085.000000	
54.818084	1107.000000	
54.838592	1112.000000	
54.859099	1077.000000	
54.879607	1130.000000	
54.900115	1102.000000	
54.920622	1192.000000	
54.941130	1186.000000	
54.961638	1103.000000	
54.982145	1149.000000	
55.002653	1148.000000	
55.023161	1249.000000	
55.043669	1151.000000	
55.064176	1151.000000	
55.084684	1192.000000	
55.105192	1153.000000	
55.125699	1168.000000	
55.146207	1235.000000	
55.166715	1195.000000	
55.187222	1182.000000	
55.207730	1230.000000	
55.228238	1210.000000	
55.248746	1284.000000	
55.269253	1275.000000	
55.289761	1215.000000	
55.310269	1276.000000	
55.330776	1261.000000	
55.351284	1233.000000	
55.371792	1249.000000	
55.392299	1308.000000	
55.412807	1266.000000	
55.433315	1302.000000	
55.453823	1301.000000	
55.474330	1322.000000	
55.494838	1246.000000	
55.515346	1309.000000	
55.535853	1269.000000	
55.556361	1272.000000	
55.576869	1361.000000	
55.597376	1331.000000	
55.617884	1331.000000	
55.638392	1329.000000	
55.658900	1285.000000	
55.679407	1286.000000	
55.699915	1256.000000	
55.720423	1289.000000	
55.740930	1260.000000	
55.761438	1209.000000	
55.781946	1223.000000	
55.802453	1281.000000	
55.822961	1226.000000	
55.843469	1195.000000	
55.863977	1166.000000	
55.884484	1224.000000	
55.904992	1166.000000	
55.925500	1205.000000	
55.946007	1133.000000	
55.966515	1202.000000	
55.987023	1174.000000	
56.007530	1194.000000	
56.028038	1179.000000	
56.048546	1195.000000	
56.069054	1222.000000	
56.089561	1220.000000	
56.110069	1251.000000	
56.130577	1254.000000	
56.151084	1224.000000	
56.171592	1249.000000	
56.192100	1248.000000	
56.212608	1270.000000	
56.233115	1300.000000	
56.253623	1306.000000	
56.274131	1343.000000	
56.294638	1355.000000	
56.315146	1326.000000	
56.335654	1413.000000	
56.356161	1447.000000	
56.376669	1422.000000	
56.397177	1451.000000	
56.417685	1405.000000	
56.438192	1330.000000	
56.458700	1372.000000	
56.479208	1404.000000	
56.499715	1353.000000	
56.520223	1369.000000	
56.540731	1387.000000	
56.561238	1325.000000	
56.581746	1313.000000	
56.602254	1290.000000	
56.622762	1285.000000	
56.643269	1288.000000	
56.663777	1209.000000	
56.684285	1284.000000	
56.704792	1300.000000	
56.725300	1284.000000	
56.745808	1309.000000	
56.766315	1190.000000	
56.786823	1235.000000	
56.807331	1217.000000	
56.827839	1229.000000	
56.848346	1213.000000	
56.868854	1210.000000	
56.889362	1144.000000	
56.909869	1088.000000	
56.930377	1118.000000	
56.950885	1102.000000	
56.971392	1082.000000	
56.991900	1084.000000	
57.012408	1082.000000	
57.032916	1037.000000	
57.053423	1048.000000	
57.073931	1034.000000	
57.094439	965.000000	
57.114946	1002.000000	
57.135454	1034.000000	
57.155962	1022.000000	
57.176469	1074.000000	
57.196977	1060.000000	
57.217485	1000.000000	
57.237993	1032.000000	
57.258500	1070.000000	
57.279008	1003.000000	
57.299516	1050.000000	
57.320023	1054.000000	
57.340531	997.000000	
57.361039	1020.000000	
57.381546	1089.000000	
57.402054	1070.000000	
57.422562	1030.000000	
57.443070	1053.000000	
57.463577	1028.000000	
57.484085	1030.000000	
57.504593	1005.000000	
57.525100	1009.000000	
57.545608	1088.000000	
57.566116	1040.000000	
57.586623	1089.000000	
57.607131	1048.000000	
57.627639	1089.000000	
57.648147	1052.000000	
57.668654	1075.000000	
57.689162	1072.000000	
57.709670	1084.000000	
57.730177	1062.000000	
57.750685	1038.000000	
57.771193	1092.000000	
57.791701	1034.000000	
57.812208	1077.000000	
57.832716	1091.000000	
57.853224	1055.000000	
57.873731	1096.000000	
57.894239	1170.000000	
57.914747	1110.000000	
57.935254	1150.000000	
57.955762	1178.000000	
57.976270	1182.000000	
57.996778	1065.000000	
58.017285	1137.000000	
58.037793	1117.000000	
58.058301	1121.000000	
58.078808	1187.000000	
58.099316	1141.000000	
58.119824	1113.000000	
58.140331	1018.000000	
58.160839	1059.000000	
58.181347	1112.000000	
58.201855	1060.000000	
58.222362	1109.000000	
58.242870	1059.000000	
58.263378	1080.000000	
58.283885	1080.000000	
58.304393	1081.000000	
58.324901	1053.000000	
58.345408	1078.000000	
58.365916	1022.000000	
58.386424	1048.000000	
58.406932	1067.000000	
58.427439	1093.000000	
58.447947	1065.000000	
58.468455	1035.000000	
58.488962	1089.000000	
58.509470	1014.000000	
58.529978	1125.000000	
58.550485	1210.000000	
58.570993	1087.000000	
58.591501	1089.000000	
58.612009	1131.000000	
58.632516	1161.000000	
58.653024	1136.000000	
58.673532	1127.000000	
58.694039	1094.000000	
58.714547	1178.000000	
58.735055	1069.000000	
58.755562	1146.000000	
58.776070	1119.000000	
58.796578	1198.000000	
58.817086	1059.000000	
58.837593	1089.000000	
58.858101	1035.000000	
58.878609	1033.000000	
58.899116	1063.000000	
58.919624	1021.000000	
58.940132	1005.000000	
58.960639	1050.000000	
58.981147	1033.000000	
59.001655	1037.000000	
59.022163	1048.000000	
59.042670	941.000000	
59.063178	1018.000000	
59.083686	982.000000	
59.104193	984.000000	
59.124701	982.000000	
59.145209	1006.000000	
59.165716	979.000000	
59.186224	963.000000	
59.206732	929.000000	
59.227240	952.000000	
59.247747	943.000000	
59.268255	984.000000	
59.288763	996.000000	
59.309270	967.000000	
59.329778	989.000000	
59.350286	940.000000	
59.370794	968.000000	
59.391301	865.000000	
59.411809	922.000000	
59.432317	978.000000	
59.452824	928.000000	
59.473332	968.000000	
59.493840	925.000000	
59.514347	948.000000	
59.534855	952.000000	
59.555363	949.000000	
59.575871	949.000000	
59.596378	907.000000	
59.616886	929.000000	
59.637394	946.000000	
59.657901	930.000000	
59.678409	953.000000	
59.698917	965.000000	
59.719424	939.000000	
59.739932	984.000000	
59.760440	997.000000	
59.780948	926.000000	
59.801455	936.000000	
59.821963	946.000000	
59.842471	1023.000000	
59.862978	987.000000	
59.883486	961.000000	
59.903994	985.000000	
59.924501	972.000000	
59.945009	948.000000	
59.965517	989.000000	
59.986025	950.000000	
60.006532	991.000000	
