;content of C:\2026\IF\Dr-IVAN\26-02-2026\FTN5.raw - (Diffrac Plus V4 file)
_FILEVERSION = 3
_SAMPLE = FTN5
_+SAMPLE
_USER = Lab Manager
_GONIOMETER_CODE = 21
_STAGE_CODE = 7
; Goniometer : D8 theta/theta, stage : Chi drive
_SAMPLE_CHANGER_CODE = 0
_ATTACHMENTS_CODE = 0
_GONIOMETER_RADIUS = 280
_SOLLER_SLITS = 2
_FIXED_DETSLIT = 6
_MONOCHROMATOR = 0
; Incident beam monochromator : None
_BETA_FILTER = N
_ANALYZER_CODE = 0
; Received beam analyzer : None
_DATEMEASURED = 26-Feb-2026 11:45:30
_RUNTIME = 1737.812
_WL_UNIT = A
_WL1 = 1.540600
_WL2 = 1.544390
_WL3 = 1.392220
_WLRATIO = 0.500000
_ANODE = Cu
_V4_INF_USER = Lab Manager
_V4_INF_SAMPLEID = FTN5
_V4_INF_CREATOR = BrmlToV4Converter
_V4_INF_CREATOR_VERSION = 7.3.1.0

; Data for range 1
_DRIVE = COUPLED
_STEPTIME = 115.2
_STEPSIZE = 0.020508
_STEPMODE = C
_START = 4.000000
_THETA = 2.000000
_2THETA = 4.000000
_PHI = 96.429688
_DIVERGENCE = 0.379996
_DETECTORSLIT = out
_TIMESTARTED = 0
_ROTATION_SPEED = 15
_KV = 40
_MA = 35
_RANGE_WL = 1.541800
_3DPLANE = 0
_V4_PSD2THETA = 9999.000000
_V4_PSDCHANNEL1 = 0
_V4_PSDAPERTURE = 2.953109
_V4_PSDTYPE = 5
_V4_PSDFIXED = 0
_V4_COUNTERS_MASK = 1
_V4_DRIVES_MASK = 0
_V4_ENCODERS_MASK = 0
_2THETACOUNTS = 1
; 2THETA	Cnt2_D1	
4.000000	445.000000	
4.020508	434.000000	
4.041015	407.000000	
4.061523	426.000000	
4.082031	420.000000	
4.102539	429.000000	
4.123046	448.000000	
4.143554	424.000000	
4.164062	441.000000	
4.184569	385.000000	
4.205077	361.000000	
4.225585	441.000000	
4.246092	440.000000	
4.266600	402.000000	
4.287108	417.000000	
4.307616	436.000000	
4.328123	435.000000	
4.348631	381.000000	
4.369139	395.000000	
4.389646	427.000000	
4.410154	388.000000	
4.430662	366.000000	
4.451169	362.000000	
4.471677	382.000000	
4.492185	396.000000	
4.512693	399.000000	
4.533200	396.000000	
4.553708	387.000000	
4.574216	391.000000	
4.594723	396.000000	
4.615231	413.000000	
4.635739	385.000000	
4.656246	371.000000	
4.676754	352.000000	
4.697262	395.000000	
4.717770	373.000000	
4.738277	391.000000	
4.758785	372.000000	
4.779293	368.000000	
4.799800	378.000000	
4.820308	355.000000	
4.840816	389.000000	
4.861323	358.000000	
4.881831	359.000000	
4.902339	360.000000	
4.922847	381.000000	
4.943354	353.000000	
4.963862	372.000000	
4.984370	364.000000	
5.004877	408.000000	
5.025385	351.000000	
5.045893	374.000000	
5.066400	346.000000	
5.086908	356.000000	
5.107416	373.000000	
5.127924	332.000000	
5.148431	326.000000	
5.168939	341.000000	
5.189447	359.000000	
5.209954	333.000000	
5.230462	334.000000	
5.250970	364.000000	
5.271477	350.000000	
5.291985	363.000000	
5.312493	397.000000	
5.333001	366.000000	
5.353508	362.000000	
5.374016	359.000000	
5.394524	387.000000	
5.415031	367.000000	
5.435539	341.000000	
5.456047	353.000000	
5.476554	351.000000	
5.497062	332.000000	
5.517570	349.000000	
5.538078	345.000000	
5.558585	333.000000	
5.579093	355.000000	
5.599601	351.000000	
5.620108	380.000000	
5.640616	347.000000	
5.661124	344.000000	
5.681632	343.000000	
5.702139	353.000000	
5.722647	362.000000	
5.743155	322.000000	
5.763662	345.000000	
5.784170	344.000000	
5.804678	365.000000	
5.825185	357.000000	
5.845693	347.000000	
5.866201	402.000000	
5.886709	344.000000	
5.907216	353.000000	
5.927724	350.000000	
5.948232	365.000000	
5.968739	317.000000	
5.989247	359.000000	
6.009755	388.000000	
6.030262	366.000000	
6.050770	336.000000	
6.071278	332.000000	
6.091786	326.000000	
6.112293	309.000000	
6.132801	393.000000	
6.153309	362.000000	
6.173816	327.000000	
6.194324	396.000000	
6.214832	335.000000	
6.235339	333.000000	
6.255847	312.000000	
6.276355	348.000000	
6.296863	328.000000	
6.317370	347.000000	
6.337878	351.000000	
6.358386	337.000000	
6.378893	353.000000	
6.399401	351.000000	
6.419909	352.000000	
6.440416	346.000000	
6.460924	400.000000	
6.481432	340.000000	
6.501940	313.000000	
6.522447	353.000000	
6.542955	326.000000	
6.563463	334.000000	
6.583970	360.000000	
6.604478	354.000000	
6.624986	359.000000	
6.645493	351.000000	
6.666001	318.000000	
6.686509	357.000000	
6.707017	356.000000	
6.727524	330.000000	
6.748032	374.000000	
6.768540	352.000000	
6.789047	339.000000	
6.809555	357.000000	
6.830063	343.000000	
6.850570	350.000000	
6.871078	336.000000	
6.891586	357.000000	
6.912094	350.000000	
6.932601	380.000000	
6.953109	361.000000	
6.973617	348.000000	
6.994124	346.000000	
7.014632	371.000000	
7.035140	345.000000	
7.055647	341.000000	
7.076155	322.000000	
7.096663	347.000000	
7.117171	350.000000	
7.137678	365.000000	
7.158186	376.000000	
7.178694	338.000000	
7.199201	360.000000	
7.219709	374.000000	
7.240217	396.000000	
7.260725	347.000000	
7.281232	368.000000	
7.301740	353.000000	
7.322248	348.000000	
7.342755	361.000000	
7.363263	361.000000	
7.383771	421.000000	
7.404278	355.000000	
7.424786	335.000000	
7.445294	364.000000	
7.465802	350.000000	
7.486309	318.000000	
7.506817	348.000000	
7.527325	337.000000	
7.547832	344.000000	
7.568340	330.000000	
7.588848	367.000000	
7.609355	355.000000	
7.629863	349.000000	
7.650371	364.000000	
7.670879	385.000000	
7.691386	333.000000	
7.711894	368.000000	
7.732402	395.000000	
7.752909	347.000000	
7.773417	381.000000	
7.793925	339.000000	
7.814432	344.000000	
7.834940	354.000000	
7.855448	369.000000	
7.875956	351.000000	
7.896463	358.000000	
7.916971	352.000000	
7.937479	349.000000	
7.957986	378.000000	
7.978494	382.000000	
7.999002	334.000000	
8.019509	381.000000	
8.040017	394.000000	
8.060525	383.000000	
8.081033	351.000000	
8.101540	347.000000	
8.122048	389.000000	
8.142556	404.000000	
8.163063	331.000000	
8.183571	375.000000	
8.204079	361.000000	
8.224586	362.000000	
8.245094	369.000000	
8.265602	374.000000	
8.286110	340.000000	
8.306617	357.000000	
8.327125	378.000000	
8.347633	381.000000	
8.368140	381.000000	
8.388648	391.000000	
8.409156	356.000000	
8.429663	364.000000	
8.450171	371.000000	
8.470679	363.000000	
8.491187	375.000000	
8.511694	394.000000	
8.532202	379.000000	
8.552710	412.000000	
8.573217	380.000000	
8.593725	405.000000	
8.614233	339.000000	
8.634740	391.000000	
8.655248	381.000000	
8.675756	332.000000	
8.696264	382.000000	
8.716771	376.000000	
8.737279	364.000000	
8.757787	364.000000	
8.778294	407.000000	
8.798802	379.000000	
8.819310	385.000000	
8.839818	387.000000	
8.860325	435.000000	
8.880833	390.000000	
8.901341	380.000000	
8.921848	369.000000	
8.942356	384.000000	
8.962864	372.000000	
8.983371	399.000000	
9.003879	374.000000	
9.024387	406.000000	
9.044895	380.000000	
9.065402	410.000000	
9.085910	437.000000	
9.106418	398.000000	
9.126925	386.000000	
9.147433	445.000000	
9.167941	410.000000	
9.188448	368.000000	
9.208956	376.000000	
9.229464	391.000000	
9.249972	408.000000	
9.270479	409.000000	
9.290987	416.000000	
9.311495	398.000000	
9.332002	385.000000	
9.352510	389.000000	
9.373018	426.000000	
9.393525	387.000000	
9.414033	387.000000	
9.434541	411.000000	
9.455049	432.000000	
9.475556	422.000000	
9.496064	387.000000	
9.516572	398.000000	
9.537079	445.000000	
9.557587	400.000000	
9.578095	394.000000	
9.598602	413.000000	
9.619110	455.000000	
9.639618	420.000000	
9.660126	437.000000	
9.680633	386.000000	
9.701141	426.000000	
9.721649	438.000000	
9.742156	411.000000	
9.762664	433.000000	
9.783172	471.000000	
9.803679	461.000000	
9.824187	431.000000	
9.844695	448.000000	
9.865203	478.000000	
9.885710	428.000000	
9.906218	427.000000	
9.926726	455.000000	
9.947233	465.000000	
9.967741	464.000000	
9.988249	447.000000	
10.008756	450.000000	
10.029264	471.000000	
10.049772	494.000000	
10.070280	459.000000	
10.090787	453.000000	
10.111295	470.000000	
10.131803	506.000000	
10.152310	491.000000	
10.172818	481.000000	
10.193326	511.000000	
10.213833	571.000000	
10.234341	584.000000	
10.254849	582.000000	
10.275357	588.000000	
10.295864	619.000000	
10.316372	637.000000	
10.336880	653.000000	
10.357387	657.000000	
10.377895	722.000000	
10.398403	745.000000	
10.418911	717.000000	
10.439418	776.000000	
10.459926	816.000000	
10.480434	948.000000	
10.500941	973.000000	
10.521449	1134.000000	
10.541957	1188.000000	
10.562464	1384.000000	
10.582972	1572.000000	
10.603480	1893.000000	
10.623988	2044.000000	
10.644495	2386.000000	
10.665003	2492.000000	
10.685511	2831.000000	
10.706018	2689.000000	
10.726526	2430.000000	
10.747034	1854.000000	
10.767541	1473.000000	
10.788049	1216.000000	
10.808557	1080.000000	
10.829065	1052.000000	
10.849572	965.000000	
10.870080	926.000000	
10.890588	909.000000	
10.911095	894.000000	
10.931603	862.000000	
10.952111	706.000000	
10.972618	735.000000	
10.993126	712.000000	
11.013634	728.000000	
11.034142	693.000000	
11.054649	716.000000	
11.075157	745.000000	
11.095665	699.000000	
11.116172	729.000000	
11.136680	780.000000	
11.157188	725.000000	
11.177695	742.000000	
11.198203	773.000000	
11.218711	790.000000	
11.239219	831.000000	
11.259726	846.000000	
11.280234	801.000000	
11.300742	917.000000	
11.321249	940.000000	
11.341757	1106.000000	
11.362265	1057.000000	
11.382772	1254.000000	
11.403280	1350.000000	
11.423788	1451.000000	
11.444296	1643.000000	
11.464803	1821.000000	
11.485311	2027.000000	
11.505819	2309.000000	
11.526326	2673.000000	
11.546834	3010.000000	
11.567342	3489.000000	
11.587849	4113.000000	
11.608357	4647.000000	
11.628865	5388.000000	
11.649373	6136.000000	
11.669880	7040.000000	
11.690388	7917.000000	
11.710896	8596.000000	
11.731403	8555.000000	
11.751911	7788.000000	
11.772419	6902.000000	
11.792926	6410.000000	
11.813434	6448.000000	
11.833942	6743.000000	
11.854450	6641.000000	
11.874957	6328.000000	
11.895465	5391.000000	
11.915973	4165.000000	
11.936480	3202.000000	
11.956988	2566.000000	
11.977496	2071.000000	
11.998004	1841.000000	
12.018511	1660.000000	
12.039019	1490.000000	
12.059527	1460.000000	
12.080034	1398.000000	
12.100542	1276.000000	
12.121050	1250.000000	
12.141557	1197.000000	
12.162065	1210.000000	
12.182573	1139.000000	
12.203081	1104.000000	
12.223588	1102.000000	
12.244096	1100.000000	
12.264604	1129.000000	
12.285111	1077.000000	
12.305619	1053.000000	
12.326127	1047.000000	
12.346634	1103.000000	
12.367142	1029.000000	
12.387650	1062.000000	
12.408158	1071.000000	
12.428665	1008.000000	
12.449173	1067.000000	
12.469681	1057.000000	
12.490188	1067.000000	
12.510696	1018.000000	
12.531204	1100.000000	
12.551711	1062.000000	
12.572219	1091.000000	
12.592727	1072.000000	
12.613235	1097.000000	
12.633742	1057.000000	
12.654250	1081.000000	
12.674758	1072.000000	
12.695265	1168.000000	
12.715773	1106.000000	
12.736281	1143.000000	
12.756788	1182.000000	
12.777296	1196.000000	
12.797804	1211.000000	
12.818312	1226.000000	
12.838819	1175.000000	
12.859327	1176.000000	
12.879835	1224.000000	
12.900342	1327.000000	
12.920850	1326.000000	
12.941358	1354.000000	
12.961865	1423.000000	
12.982373	1489.000000	
13.002881	1560.000000	
13.023389	1673.000000	
13.043896	1778.000000	
13.064404	1966.000000	
13.084912	2025.000000	
13.105419	2146.000000	
13.125927	2402.000000	
13.146435	2538.000000	
13.166942	2779.000000	
13.187450	2898.000000	
13.207958	3158.000000	
13.228466	3202.000000	
13.248973	3569.000000	
13.269481	3718.000000	
13.289989	3978.000000	
13.310496	4341.000000	
13.331004	4503.000000	
13.351512	4808.000000	
13.372019	4989.000000	
13.392527	4847.000000	
13.413035	4833.000000	
13.433543	4411.000000	
13.454050	4025.000000	
13.474558	3665.000000	
13.495066	3338.000000	
13.515573	3126.000000	
13.536081	3078.000000	
13.556589	3137.000000	
13.577097	3185.000000	
13.597604	3285.000000	
13.618112	3184.000000	
13.638620	3061.000000	
13.659127	2868.000000	
13.679635	2419.000000	
13.700143	2071.000000	
13.720650	1762.000000	
13.741158	1635.000000	
13.761666	1470.000000	
13.782174	1409.000000	
13.802681	1413.000000	
13.823189	1363.000000	
13.843697	1343.000000	
13.864204	1275.000000	
13.884712	1302.000000	
13.905220	1247.000000	
13.925727	1200.000000	
13.946235	1183.000000	
13.966743	1185.000000	
13.987251	1221.000000	
14.007758	1180.000000	
14.028266	1188.000000	
14.048774	1127.000000	
14.069281	1152.000000	
14.089789	1136.000000	
14.110297	1112.000000	
14.130804	1170.000000	
14.151312	1130.000000	
14.171820	1113.000000	
14.192328	1146.000000	
14.212835	1157.000000	
14.233343	1186.000000	
14.253851	1187.000000	
14.274358	1206.000000	
14.294866	1218.000000	
14.315374	1171.000000	
14.335881	1196.000000	
14.356389	1232.000000	
14.376897	1234.000000	
14.397405	1249.000000	
14.417912	1243.000000	
14.438420	1268.000000	
14.458928	1264.000000	
14.479435	1314.000000	
14.499943	1277.000000	
14.520451	1301.000000	
14.540958	1289.000000	
14.561466	1404.000000	
14.581974	1379.000000	
14.602482	1382.000000	
14.622989	1393.000000	
14.643497	1420.000000	
14.664005	1339.000000	
14.684512	1352.000000	
14.705020	1328.000000	
14.725528	1231.000000	
14.746035	1223.000000	
14.766543	1230.000000	
14.787051	1194.000000	
14.807559	1174.000000	
14.828066	1175.000000	
14.848574	1236.000000	
14.869082	1190.000000	
14.889589	1187.000000	
14.910097	1151.000000	
14.930605	1184.000000	
14.951112	1169.000000	
14.971620	1211.000000	
14.992128	1191.000000	
15.012636	1217.000000	
15.033143	1186.000000	
15.053651	1256.000000	
15.074159	1198.000000	
15.094666	1182.000000	
15.115174	1155.000000	
15.135682	1211.000000	
15.156190	1263.000000	
15.176697	1224.000000	
15.197205	1197.000000	
15.217713	1219.000000	
15.238220	1213.000000	
15.258728	1207.000000	
15.279236	1245.000000	
15.299743	1188.000000	
15.320251	1115.000000	
15.340759	1190.000000	
15.361267	1207.000000	
15.381774	1218.000000	
15.402282	1243.000000	
15.422790	1268.000000	
15.443297	1197.000000	
15.463805	1270.000000	
15.484313	1301.000000	
15.504820	1220.000000	
15.525328	1263.000000	
15.545836	1177.000000	
15.566344	1230.000000	
15.586851	1283.000000	
15.607359	1293.000000	
15.627867	1276.000000	
15.648374	1280.000000	
15.668882	1283.000000	
15.689390	1309.000000	
15.709897	1346.000000	
15.730405	1282.000000	
15.750913	1270.000000	
15.771421	1351.000000	
15.791928	1336.000000	
15.812436	1307.000000	
15.832944	1365.000000	
15.853451	1272.000000	
15.873959	1374.000000	
15.894467	1297.000000	
15.914974	1348.000000	
15.935482	1417.000000	
15.955990	1442.000000	
15.976498	1460.000000	
15.997005	1415.000000	
16.017513	1455.000000	
16.038021	1536.000000	
16.058528	1442.000000	
16.079036	1473.000000	
16.099544	1488.000000	
16.120051	1471.000000	
16.140559	1502.000000	
16.161067	1518.000000	
16.181575	1645.000000	
16.202082	1533.000000	
16.222590	1616.000000	
16.243098	1605.000000	
16.263605	1779.000000	
16.284113	1817.000000	
16.304621	2047.000000	
16.325128	2227.000000	
16.345636	2392.000000	
16.366144	2629.000000	
16.386652	2974.000000	
16.407159	3288.000000	
16.427667	3517.000000	
16.448175	3676.000000	
16.468682	3862.000000	
16.489190	4103.000000	
16.509698	4405.000000	
16.530205	4620.000000	
16.550713	4789.000000	
16.571221	5143.000000	
16.591729	5467.000000	
16.612236	5756.000000	
16.632744	6128.000000	
16.653252	6665.000000	
16.673759	7175.000000	
16.694267	7573.000000	
16.714775	8260.000000	
16.735283	8752.000000	
16.755790	8563.000000	
16.776298	7497.000000	
16.796806	6019.000000	
16.817313	4614.000000	
16.837821	3418.000000	
16.858329	2731.000000	
16.878836	2348.000000	
16.899344	2179.000000	
16.919852	2025.000000	
16.940360	1980.000000	
16.960867	1935.000000	
16.981375	1815.000000	
17.001883	1815.000000	
17.022390	1758.000000	
17.042898	1755.000000	
17.063406	1746.000000	
17.083913	1722.000000	
17.104421	1721.000000	
17.124929	1719.000000	
17.145437	1716.000000	
17.165944	1715.000000	
17.186452	1757.000000	
17.206960	1791.000000	
17.227467	1772.000000	
17.247975	1773.000000	
17.268483	1830.000000	
17.288990	1846.000000	
17.309498	1841.000000	
17.330006	1843.000000	
17.350514	1793.000000	
17.371021	1836.000000	
17.391529	1873.000000	
17.412037	1820.000000	
17.432544	1771.000000	
17.453052	1745.000000	
17.473560	1714.000000	
17.494067	1656.000000	
17.514575	1707.000000	
17.535083	1693.000000	
17.555591	1672.000000	
17.576098	1679.000000	
17.596606	1786.000000	
17.617114	1680.000000	
17.637621	1717.000000	
17.658129	1860.000000	
17.678637	1787.000000	
17.699144	1774.000000	
17.719652	1854.000000	
17.740160	1938.000000	
17.760668	1957.000000	
17.781175	2005.000000	
17.801683	2126.000000	
17.822191	2190.000000	
17.842698	2331.000000	
17.863206	2407.000000	
17.883714	2450.000000	
17.904221	2543.000000	
17.924729	2628.000000	
17.945237	2686.000000	
17.965745	2726.000000	
17.986252	2863.000000	
18.006760	2799.000000	
18.027268	2940.000000	
18.047775	3061.000000	
18.068283	3122.000000	
18.088791	3198.000000	
18.109298	3288.000000	
18.129806	3344.000000	
18.150314	3572.000000	
18.170822	3535.000000	
18.191329	3566.000000	
18.211837	3365.000000	
18.232345	3212.000000	
18.252852	3185.000000	
18.273360	2993.000000	
18.293868	2902.000000	
18.314376	2828.000000	
18.334883	2889.000000	
18.355391	2851.000000	
18.375899	3040.000000	
18.396406	2884.000000	
18.416914	3124.000000	
18.437422	3251.000000	
18.457929	3326.000000	
18.478437	3393.000000	
18.498945	3551.000000	
18.519453	3655.000000	
18.539960	3684.000000	
18.560468	3635.000000	
18.580976	3610.000000	
18.601483	3705.000000	
18.621991	3681.000000	
18.642499	3635.000000	
18.663006	3691.000000	
18.683514	3858.000000	
18.704022	3923.000000	
18.724530	3951.000000	
18.745037	4068.000000	
18.765545	4167.000000	
18.786053	4236.000000	
18.806560	4267.000000	
18.827068	4194.000000	
18.847576	4068.000000	
18.868083	3903.000000	
18.888591	3709.000000	
18.909099	3466.000000	
18.929607	3059.000000	
18.950114	2900.000000	
18.970622	2599.000000	
18.991130	2405.000000	
19.011637	2326.000000	
19.032145	2232.000000	
19.052653	2200.000000	
19.073160	2070.000000	
19.093668	1980.000000	
19.114176	2017.000000	
19.134684	2015.000000	
19.155191	1978.000000	
19.175699	1927.000000	
19.196207	1940.000000	
19.216714	1899.000000	
19.237222	1766.000000	
19.257730	1821.000000	
19.278237	1863.000000	
19.298745	1800.000000	
19.319253	1748.000000	
19.339761	1853.000000	
19.360268	1829.000000	
19.380776	1865.000000	
19.401284	1885.000000	
19.421791	1846.000000	
19.442299	1764.000000	
19.462807	1865.000000	
19.483314	1969.000000	
19.503822	1887.000000	
19.524330	1923.000000	
19.544838	1872.000000	
19.565345	2015.000000	
19.585853	2017.000000	
19.606361	2044.000000	
19.626868	2076.000000	
19.647376	2140.000000	
19.667884	2217.000000	
19.688391	2231.000000	
19.708899	2378.000000	
19.729407	2361.000000	
19.749915	2344.000000	
19.770422	2423.000000	
19.790930	2503.000000	
19.811438	2520.000000	
19.831945	2577.000000	
19.852453	2666.000000	
19.872961	2694.000000	
19.893469	2820.000000	
19.913976	2923.000000	
19.934484	2951.000000	
19.954992	3035.000000	
19.975499	3037.000000	
19.996007	2905.000000	
20.016515	2847.000000	
20.037022	2822.000000	
20.057530	2637.000000	
20.078038	2500.000000	
20.098546	2487.000000	
20.119053	2295.000000	
20.139561	2201.000000	
20.160069	2203.000000	
20.180576	2166.000000	
20.201084	2097.000000	
20.221592	2117.000000	
20.242099	2093.000000	
20.262607	1987.000000	
20.283115	1967.000000	
20.303623	1932.000000	
20.324130	2103.000000	
20.344638	2054.000000	
20.365146	2065.000000	
20.385653	1980.000000	
20.406161	1965.000000	
20.426669	2021.000000	
20.447176	2031.000000	
20.467684	1985.000000	
20.488192	1915.000000	
20.508700	1954.000000	
20.529207	2051.000000	
20.549715	1911.000000	
20.570223	1969.000000	
20.590730	1920.000000	
20.611238	1898.000000	
20.631746	1892.000000	
20.652253	1947.000000	
20.672761	1916.000000	
20.693269	1883.000000	
20.713777	1925.000000	
20.734284	1983.000000	
20.754792	1896.000000	
20.775300	1990.000000	
20.795807	1901.000000	
20.816315	1990.000000	
20.836823	2006.000000	
20.857330	1938.000000	
20.877838	1994.000000	
20.898346	1913.000000	
20.918854	1996.000000	
20.939361	2046.000000	
20.959869	2101.000000	
20.980377	2095.000000	
21.000884	2041.000000	
21.021392	2092.000000	
21.041900	2119.000000	
21.062407	2184.000000	
21.082915	2173.000000	
21.103423	2150.000000	
21.123931	2156.000000	
21.144438	2235.000000	
21.164946	2228.000000	
21.185454	2165.000000	
21.205961	2165.000000	
21.226469	2217.000000	
21.246977	2354.000000	
21.267484	2374.000000	
21.287992	2379.000000	
21.308500	2442.000000	
21.329008	2456.000000	
21.349515	2560.000000	
21.370023	2565.000000	
21.390531	2605.000000	
21.411038	2650.000000	
21.431546	2640.000000	
21.452054	2641.000000	
21.472562	2578.000000	
21.493069	2682.000000	
21.513577	2701.000000	
21.534085	2751.000000	
21.554592	2793.000000	
21.575100	2790.000000	
21.595608	2842.000000	
21.616115	2938.000000	
21.636623	2954.000000	
21.657131	2933.000000	
21.677639	3003.000000	
21.698146	2957.000000	
21.718654	3091.000000	
21.739162	3039.000000	
21.759669	3045.000000	
21.780177	3233.000000	
21.800685	3374.000000	
21.821192	3345.000000	
21.841700	3530.000000	
21.862208	3628.000000	
21.882716	3650.000000	
21.903223	3649.000000	
21.923731	3705.000000	
21.944239	3742.000000	
21.964746	3840.000000	
21.985254	3732.000000	
22.005762	3785.000000	
22.026269	3800.000000	
22.046777	3970.000000	
22.067285	3940.000000	
22.087793	4061.000000	
22.108300	4281.000000	
22.128808	4325.000000	
22.149316	4513.000000	
22.169823	4670.000000	
22.190331	4606.000000	
22.210839	4749.000000	
22.231346	4516.000000	
22.251854	4402.000000	
22.272362	4275.000000	
22.292870	3775.000000	
22.313377	3588.000000	
22.333885	3325.000000	
22.354393	3010.000000	
22.374900	2979.000000	
22.395408	2814.000000	
22.415916	2798.000000	
22.436423	2776.000000	
22.456931	2772.000000	
22.477439	2785.000000	
22.497947	2719.000000	
22.518454	2711.000000	
22.538962	2745.000000	
22.559470	2860.000000	
22.579977	2859.000000	
22.600485	2939.000000	
22.620993	3058.000000	
22.641500	3189.000000	
22.662008	3272.000000	
22.682516	3517.000000	
22.703024	3672.000000	
22.723531	3728.000000	
22.744039	3971.000000	
22.764547	4151.000000	
22.785054	4394.000000	
22.805562	4450.000000	
22.826070	4778.000000	
22.846577	4969.000000	
22.867085	5111.000000	
22.887593	5529.000000	
22.908101	5795.000000	
22.928608	5964.000000	
22.949116	6159.000000	
22.969624	6413.000000	
22.990131	6664.000000	
23.010639	6805.000000	
23.031147	6981.000000	
23.051655	6808.000000	
23.072162	6616.000000	
23.092670	6467.000000	
23.113178	6222.000000	
23.133685	5937.000000	
23.154193	5851.000000	
23.174701	5734.000000	
23.195208	5675.000000	
23.215716	5628.000000	
23.236224	5473.000000	
23.256732	5258.000000	
23.277239	4940.000000	
23.297747	4673.000000	
23.318255	4186.000000	
23.338762	4114.000000	
23.359270	4001.000000	
23.379778	3938.000000	
23.400285	3824.000000	
23.420793	3892.000000	
23.441301	3806.000000	
23.461809	3763.000000	
23.482316	3856.000000	
23.502824	3801.000000	
23.523332	3806.000000	
23.543839	3991.000000	
23.564347	3936.000000	
23.584855	3919.000000	
23.605362	3809.000000	
23.625870	3620.000000	
23.646378	3231.000000	
23.666886	3107.000000	
23.687393	2940.000000	
23.707901	2843.000000	
23.728409	2687.000000	
23.748916	2642.000000	
23.769424	2548.000000	
23.789932	2558.000000	
23.810439	2625.000000	
23.830947	2584.000000	
23.851455	2573.000000	
23.871963	2527.000000	
23.892470	2590.000000	
23.912978	2551.000000	
23.933486	2464.000000	
23.953993	2598.000000	
23.974501	2674.000000	
23.995009	2613.000000	
24.015516	2661.000000	
24.036024	2538.000000	
24.056532	2570.000000	
24.077040	2596.000000	
24.097547	2648.000000	
24.118055	2508.000000	
24.138563	2554.000000	
24.159070	2423.000000	
24.179578	2463.000000	
24.200086	2453.000000	
24.220593	2508.000000	
24.241101	2543.000000	
24.261609	2505.000000	
24.282117	2477.000000	
24.302624	2470.000000	
24.323132	2571.000000	
24.343640	2608.000000	
24.364147	2429.000000	
24.384655	2426.000000	
24.405163	2520.000000	
24.425670	2341.000000	
24.446178	2428.000000	
24.466686	2428.000000	
24.487194	2333.000000	
24.507701	2315.000000	
24.528209	2227.000000	
24.548717	2386.000000	
24.569224	2477.000000	
24.589732	2434.000000	
24.610240	2374.000000	
24.630748	2428.000000	
24.651255	2454.000000	
24.671763	2459.000000	
24.692271	2575.000000	
24.712778	2525.000000	
24.733286	2543.000000	
24.753794	2631.000000	
24.774301	2519.000000	
24.794809	2559.000000	
24.815317	2562.000000	
24.835825	2600.000000	
24.856332	2605.000000	
24.876840	2556.000000	
24.897348	2504.000000	
24.917855	2532.000000	
24.938363	2503.000000	
24.958871	2508.000000	
24.979378	2486.000000	
24.999886	2454.000000	
25.020394	2540.000000	
25.040902	2467.000000	
25.061409	2416.000000	
25.081917	2518.000000	
25.102425	2550.000000	
25.122932	2559.000000	
25.143440	2616.000000	
25.163948	2545.000000	
25.184455	2528.000000	
25.204963	2633.000000	
25.225471	2596.000000	
25.245979	2627.000000	
25.266486	2668.000000	
25.286994	2575.000000	
25.307502	2741.000000	
25.328009	2766.000000	
25.348517	2794.000000	
25.369025	2892.000000	
25.389532	2899.000000	
25.410040	2995.000000	
25.430548	2937.000000	
25.451056	3008.000000	
25.471563	3028.000000	
25.492071	3130.000000	
25.512579	3097.000000	
25.533086	3177.000000	
25.553594	3321.000000	
25.574102	3165.000000	
25.594609	3282.000000	
25.615117	3381.000000	
25.635625	3302.000000	
25.656133	3406.000000	
25.676640	3376.000000	
25.697148	3378.000000	
25.717656	3340.000000	
25.738163	3401.000000	
25.758671	3398.000000	
25.779179	3518.000000	
25.799686	3471.000000	
25.820194	3523.000000	
25.840702	3555.000000	
25.861210	3676.000000	
25.881717	3650.000000	
25.902225	3749.000000	
25.922733	3950.000000	
25.943240	4102.000000	
25.963748	4336.000000	
25.984256	4536.000000	
26.004763	4909.000000	
26.025271	5449.000000	
26.045779	5917.000000	
26.066287	6628.000000	
26.086794	7147.000000	
26.107302	7866.000000	
26.127810	8383.000000	
26.148317	8967.000000	
26.168825	9416.000000	
26.189333	9835.000000	
26.209841	10412.000000	
26.230348	10735.000000	
26.250856	11038.000000	
26.271364	11852.000000	
26.291871	12256.000000	
26.312379	12874.000000	
26.332887	13383.000000	
26.353394	14146.000000	
26.373902	14629.000000	
26.394410	15253.000000	
26.414918	15275.000000	
26.435425	15322.000000	
26.455933	14451.000000	
26.476441	12626.000000	
26.496948	11385.000000	
26.517456	9940.000000	
26.537964	8462.000000	
26.558471	7179.000000	
26.578979	6182.000000	
26.599487	5564.000000	
26.619995	5030.000000	
26.640502	4726.000000	
26.661010	4424.000000	
26.681518	4313.000000	
26.702025	4069.000000	
26.722533	4055.000000	
26.743041	3935.000000	
26.763548	4061.000000	
26.784056	4027.000000	
26.804564	4054.000000	
26.825072	4082.000000	
26.845579	3964.000000	
26.866087	4024.000000	
26.886595	4101.000000	
26.907102	4119.000000	
26.927610	4311.000000	
26.948118	4416.000000	
26.968625	4532.000000	
26.989133	4746.000000	
27.009641	4941.000000	
27.030149	5221.000000	
27.050656	5519.000000	
27.071164	6046.000000	
27.091672	6396.000000	
27.112179	7083.000000	
27.132687	7823.000000	
27.153195	8342.000000	
27.173702	9042.000000	
27.194210	9426.000000	
27.214718	10167.000000	
27.235226	10762.000000	
27.255733	11457.000000	
27.276241	12000.000000	
27.296749	12788.000000	
27.317256	13667.000000	
27.337764	14369.000000	
27.358272	15207.000000	
27.378779	16355.000000	
27.399287	17616.000000	
27.419795	18289.000000	
27.440303	19409.000000	
27.460810	20381.000000	
27.481318	20545.000000	
27.501826	20777.000000	
27.522333	19712.000000	
27.542841	18900.000000	
27.563349	18065.000000	
27.583856	17037.000000	
27.604364	16757.000000	
27.624872	15992.000000	
27.645380	15779.000000	
27.665887	15851.000000	
27.686395	15912.000000	
27.706903	15957.000000	
27.727410	16257.000000	
27.747918	16097.000000	
27.768426	15907.000000	
27.788934	15214.000000	
27.809441	13874.000000	
27.829949	12259.000000	
27.850457	10481.000000	
27.870964	9300.000000	
27.891472	8025.000000	
27.911980	6874.000000	
27.932487	5970.000000	
27.952995	5495.000000	
27.973503	4857.000000	
27.994011	4502.000000	
28.014518	4359.000000	
28.035026	4192.000000	
28.055534	3927.000000	
28.076041	3757.000000	
28.096549	3773.000000	
28.117057	3644.000000	
28.137564	3535.000000	
28.158072	3449.000000	
28.178580	3557.000000	
28.199088	3367.000000	
28.219595	3391.000000	
28.240103	3271.000000	
28.260611	3320.000000	
28.281118	3578.000000	
28.301626	3385.000000	
28.322134	3522.000000	
28.342641	3448.000000	
28.363149	3271.000000	
28.383657	3122.000000	
28.404165	2998.000000	
28.424672	2817.000000	
28.445180	2820.000000	
28.465688	2667.000000	
28.486195	2706.000000	
28.506703	2483.000000	
28.527211	2643.000000	
28.547718	2456.000000	
28.568226	2412.000000	
28.588734	2491.000000	
28.609242	2363.000000	
28.629749	2327.000000	
28.650257	2374.000000	
28.670765	2345.000000	
28.691272	2400.000000	
28.711780	2397.000000	
28.732288	2320.000000	
28.752795	2349.000000	
28.773303	2277.000000	
28.793811	2306.000000	
28.814319	2291.000000	
28.834826	2379.000000	
28.855334	2272.000000	
28.875842	2228.000000	
28.896349	2216.000000	
28.916857	2234.000000	
28.937365	2280.000000	
28.957872	2263.000000	
28.978380	2236.000000	
28.998888	2292.000000	
29.019396	2286.000000	
29.039903	2201.000000	
29.060411	2272.000000	
29.080919	2270.000000	
29.101426	2182.000000	
29.121934	2248.000000	
29.142442	2219.000000	
29.162949	2345.000000	
29.183457	2233.000000	
29.203965	2291.000000	
29.224473	2255.000000	
29.244980	2313.000000	
29.265488	2271.000000	
29.285996	2328.000000	
29.306503	2331.000000	
29.327011	2313.000000	
29.347519	2391.000000	
29.368027	2448.000000	
29.388534	2348.000000	
29.409042	2382.000000	
29.429550	2405.000000	
29.450057	2361.000000	
29.470565	2311.000000	
29.491073	2371.000000	
29.511580	2427.000000	
29.532088	2472.000000	
29.552596	2502.000000	
29.573104	2523.000000	
29.593611	2525.000000	
29.614119	2543.000000	
29.634627	2623.000000	
29.655134	2592.000000	
29.675642	2682.000000	
29.696150	2715.000000	
29.716657	2693.000000	
29.737165	2769.000000	
29.757673	2787.000000	
29.778181	2848.000000	
29.798688	2858.000000	
29.819196	2906.000000	
29.839704	2960.000000	
29.860211	3072.000000	
29.880719	3084.000000	
29.901227	3157.000000	
29.921734	3222.000000	
29.942242	3266.000000	
29.962750	3301.000000	
29.983258	3357.000000	
30.003765	3322.000000	
30.024273	3331.000000	
30.044781	3212.000000	
30.065288	3230.000000	
30.085796	3130.000000	
30.106304	3064.000000	
30.126811	3002.000000	
30.147319	2962.000000	
30.167827	2844.000000	
30.188335	2844.000000	
30.208842	2639.000000	
30.229350	2590.000000	
30.249858	2508.000000	
30.270365	2471.000000	
30.290873	2538.000000	
30.311381	2445.000000	
30.331888	2384.000000	
30.352396	2349.000000	
30.372904	2381.000000	
30.393412	2375.000000	
30.413919	2341.000000	
30.434427	2233.000000	
30.454935	2362.000000	
30.475442	2343.000000	
30.495950	2381.000000	
30.516458	2331.000000	
30.536965	2338.000000	
30.557473	2343.000000	
30.577981	2238.000000	
30.598489	2162.000000	
30.618996	2111.000000	
30.639504	2240.000000	
30.660012	2121.000000	
30.680519	2113.000000	
30.701027	2141.000000	
30.721535	2011.000000	
30.742042	2020.000000	
30.762550	2089.000000	
30.783058	2136.000000	
30.803566	2000.000000	
30.824073	1944.000000	
30.844581	2032.000000	
30.865089	2063.000000	
30.885596	2077.000000	
30.906104	1981.000000	
30.926612	2033.000000	
30.947120	2123.000000	
30.967627	2137.000000	
30.988135	2067.000000	
31.008643	2055.000000	
31.029150	2136.000000	
31.049658	2143.000000	
31.070166	2212.000000	
31.090673	2242.000000	
31.111181	2354.000000	
31.131689	2371.000000	
31.152197	2319.000000	
31.172704	2457.000000	
31.193212	2610.000000	
31.213720	2666.000000	
31.234227	2735.000000	
31.254735	2786.000000	
31.275243	2923.000000	
31.295750	3040.000000	
31.316258	3226.000000	
31.336766	3243.000000	
31.357274	3317.000000	
31.377781	3302.000000	
31.398289	3479.000000	
31.418797	3477.000000	
31.439304	3723.000000	
31.459812	3635.000000	
31.480320	3582.000000	
31.500827	3732.000000	
31.521335	3740.000000	
31.541843	3812.000000	
31.562351	3700.000000	
31.582858	3833.000000	
31.603366	3727.000000	
31.623874	3729.000000	
31.644381	3766.000000	
31.664889	3675.000000	
31.685397	3582.000000	
31.705904	3416.000000	
31.726412	3270.000000	
31.746920	3221.000000	
31.767428	3013.000000	
31.787935	3056.000000	
31.808443	2986.000000	
31.828951	2848.000000	
31.849458	2818.000000	
31.869966	2749.000000	
31.890474	2849.000000	
31.910981	2847.000000	
31.931489	2934.000000	
31.951997	2831.000000	
31.972505	2870.000000	
31.993012	2969.000000	
32.013520	2881.000000	
32.034028	2926.000000	
32.054535	2836.000000	
32.075043	2838.000000	
32.095551	2803.000000	
32.116058	2576.000000	
32.136566	2547.000000	
32.157074	2524.000000	
32.177582	2464.000000	
32.198089	2347.000000	
32.218597	2352.000000	
32.239105	2254.000000	
32.259612	2246.000000	
32.280120	2219.000000	
32.300628	2235.000000	
32.321135	2173.000000	
32.341643	2173.000000	
32.362151	2137.000000	
32.382659	2242.000000	
32.403166	2223.000000	
32.423674	2183.000000	
32.444182	2182.000000	
32.464689	2288.000000	
32.485197	2348.000000	
32.505705	2217.000000	
32.526213	2364.000000	
32.546720	2273.000000	
32.567228	2304.000000	
32.587736	2352.000000	
32.608243	2484.000000	
32.628751	2566.000000	
32.649259	2364.000000	
32.669766	2515.000000	
32.690274	2521.000000	
32.710782	2643.000000	
32.731290	2631.000000	
32.751797	2665.000000	
32.772305	2781.000000	
32.792813	2775.000000	
32.813320	2840.000000	
32.833828	2894.000000	
32.854336	2887.000000	
32.874843	2772.000000	
32.895351	2853.000000	
32.915859	2843.000000	
32.936367	2954.000000	
32.956874	2859.000000	
32.977382	2900.000000	
32.997890	2894.000000	
33.018397	2928.000000	
33.038905	2942.000000	
33.059413	2977.000000	
33.079920	3079.000000	
33.100428	3061.000000	
33.120936	2904.000000	
33.141444	2863.000000	
33.161951	2846.000000	
33.182459	2779.000000	
33.202967	2819.000000	
33.223474	2709.000000	
33.243982	2494.000000	
33.264490	2622.000000	
33.284997	2550.000000	
33.305505	2523.000000	
33.326013	2608.000000	
33.346521	2599.000000	
33.367028	2631.000000	
33.387536	2680.000000	
33.408044	2610.000000	
33.428551	2634.000000	
33.449059	2718.000000	
33.469567	2650.000000	
33.490074	2799.000000	
33.510582	2788.000000	
33.531090	2863.000000	
33.551598	2688.000000	
33.572105	2771.000000	
33.592613	2745.000000	
33.613121	2794.000000	
33.633628	2706.000000	
33.654136	2799.000000	
33.674644	2625.000000	
33.695151	2605.000000	
33.715659	2601.000000	
33.736167	2621.000000	
33.756675	2549.000000	
33.777182	2521.000000	
33.797690	2534.000000	
33.818198	2598.000000	
33.838705	2470.000000	
33.859213	2336.000000	
33.879721	2295.000000	
33.900228	2341.000000	
33.920736	2208.000000	
33.941244	2095.000000	
33.961752	2045.000000	
33.982259	2031.000000	
34.002767	2040.000000	
34.023275	1968.000000	
34.043782	1851.000000	
34.064290	1909.000000	
34.084798	1905.000000	
34.105306	1833.000000	
34.125813	1758.000000	
34.146321	1828.000000	
34.166829	1839.000000	
34.187336	1800.000000	
34.207844	1752.000000	
34.228352	1776.000000	
34.248859	1810.000000	
34.269367	1790.000000	
34.289875	1736.000000	
34.310383	1802.000000	
34.330890	1737.000000	
34.351398	1722.000000	
34.371906	1699.000000	
34.392413	1656.000000	
34.412921	1657.000000	
34.433429	1667.000000	
34.453936	1685.000000	
34.474444	1758.000000	
34.494952	1747.000000	
34.515460	1753.000000	
34.535967	1767.000000	
34.556475	1797.000000	
34.576983	1763.000000	
34.597490	1774.000000	
34.617998	1755.000000	
34.638506	1740.000000	
34.659013	1739.000000	
34.679521	1786.000000	
34.700029	1830.000000	
34.720537	1869.000000	
34.741044	1814.000000	
34.761552	1880.000000	
34.782060	1836.000000	
34.802567	1908.000000	
34.823075	1912.000000	
34.843583	1872.000000	
34.864090	1909.000000	
34.884598	1846.000000	
34.905106	1995.000000	
34.925614	1931.000000	
34.946121	1877.000000	
34.966629	1890.000000	
34.987137	1979.000000	
35.007644	1875.000000	
35.028152	1882.000000	
35.048660	1863.000000	
35.069167	1898.000000	
35.089675	1948.000000	
35.110183	1901.000000	
35.130691	1864.000000	
35.151198	1837.000000	
35.171706	1834.000000	
35.192214	1903.000000	
35.212721	1841.000000	
35.233229	1957.000000	
35.253737	1808.000000	
35.274244	1905.000000	
35.294752	1750.000000	
35.315260	1859.000000	
35.335768	2029.000000	
35.356275	2008.000000	
35.376783	2069.000000	
35.397291	2003.000000	
35.417798	2161.000000	
35.438306	2108.000000	
35.458814	2157.000000	
35.479321	2202.000000	
35.499829	2139.000000	
35.520337	2273.000000	
35.540845	2329.000000	
35.561352	2302.000000	
35.581860	2372.000000	
35.602368	2340.000000	
35.622875	2441.000000	
35.643383	2482.000000	
35.663891	2456.000000	
35.684399	2442.000000	
35.704906	2412.000000	
35.725414	2425.000000	
35.745922	2342.000000	
35.766429	2224.000000	
35.786937	2123.000000	
35.807445	2062.000000	
35.827952	2003.000000	
35.848460	1953.000000	
35.868968	2028.000000	
35.889476	1880.000000	
35.909983	1838.000000	
35.930491	1811.000000	
35.950999	1772.000000	
35.971506	1750.000000	
35.992014	1734.000000	
36.012522	1713.000000	
36.033029	1795.000000	
36.053537	1763.000000	
36.074045	1799.000000	
36.094553	1774.000000	
36.115060	1770.000000	
36.135568	1857.000000	
36.156076	1860.000000	
36.176583	1882.000000	
36.197091	1891.000000	
36.217599	1877.000000	
36.238106	1861.000000	
36.258614	1908.000000	
36.279122	1959.000000	
36.299630	2021.000000	
36.320137	1992.000000	
36.340645	2039.000000	
36.361153	1986.000000	
36.381660	1941.000000	
36.402168	2015.000000	
36.422676	2033.000000	
36.443183	2034.000000	
36.463691	1974.000000	
36.484199	2005.000000	
36.504707	2069.000000	
36.525214	2070.000000	
36.545722	2101.000000	
36.566230	2117.000000	
36.586737	2227.000000	
36.607245	2140.000000	
36.627753	2078.000000	
36.648260	2137.000000	
36.668768	2142.000000	
36.689276	2192.000000	
36.709784	2224.000000	
36.730291	2181.000000	
36.750799	2113.000000	
36.771307	2202.000000	
36.791814	2177.000000	
36.812322	2233.000000	
36.832830	2219.000000	
36.853337	2204.000000	
36.873845	2148.000000	
36.894353	2122.000000	
36.914861	2148.000000	
36.935368	2140.000000	
36.955876	2170.000000	
36.976384	2109.000000	
36.996891	2033.000000	
37.017399	2041.000000	
37.037907	1919.000000	
37.058414	1990.000000	
37.078922	1978.000000	
37.099430	2000.000000	
37.119938	2019.000000	
37.140445	1925.000000	
37.160953	1955.000000	
37.181461	1905.000000	
37.201968	1990.000000	
37.222476	1995.000000	
37.242984	2039.000000	
37.263492	1983.000000	
37.283999	2078.000000	
37.304507	2126.000000	
37.325015	2101.000000	
37.345522	2244.000000	
37.366030	2129.000000	
37.386538	2239.000000	
37.407045	2188.000000	
37.427553	2161.000000	
37.448061	2261.000000	
37.468569	2231.000000	
37.489076	2278.000000	
37.509584	2189.000000	
37.530092	2198.000000	
37.550599	2181.000000	
37.571107	2239.000000	
37.591615	2303.000000	
37.612122	2256.000000	
37.632630	2171.000000	
37.653138	2235.000000	
37.673646	2214.000000	
37.694153	2235.000000	
37.714661	2181.000000	
37.735169	2134.000000	
37.755676	2131.000000	
37.776184	2140.000000	
37.796692	2101.000000	
37.817199	1942.000000	
37.837707	2026.000000	
37.858215	1985.000000	
37.878723	1976.000000	
37.899230	1966.000000	
37.919738	1923.000000	
37.940246	1918.000000	
37.960753	1887.000000	
37.981261	1844.000000	
38.001769	1943.000000	
38.022276	1904.000000	
38.042784	1868.000000	
38.063292	1931.000000	
38.083800	2043.000000	
38.104307	1979.000000	
38.124815	1893.000000	
38.145323	1965.000000	
38.165830	2069.000000	
38.186338	2022.000000	
38.206846	1970.000000	
38.227353	1997.000000	
38.247861	2014.000000	
38.268369	1977.000000	
38.288877	2010.000000	
38.309384	2064.000000	
38.329892	1984.000000	
38.350400	1951.000000	
38.370907	1930.000000	
38.391415	1921.000000	
38.411923	1973.000000	
38.432430	1931.000000	
38.452938	1922.000000	
38.473446	1956.000000	
38.493954	1887.000000	
38.514461	1888.000000	
38.534969	1806.000000	
38.555477	1859.000000	
38.575984	1916.000000	
38.596492	1837.000000	
38.617000	1831.000000	
38.637507	1846.000000	
38.658015	1732.000000	
38.678523	1840.000000	
38.699031	1811.000000	
38.719538	1738.000000	
38.740046	1849.000000	
38.760554	1918.000000	
38.781061	1771.000000	
38.801569	1846.000000	
38.822077	1860.000000	
38.842585	1866.000000	
38.863092	1886.000000	
38.883600	1799.000000	
38.904108	1792.000000	
38.924615	1818.000000	
38.945123	1792.000000	
38.965631	1785.000000	
38.986138	1845.000000	
39.006646	1837.000000	
39.027154	1809.000000	
39.047662	1886.000000	
39.068169	1711.000000	
39.088677	1792.000000	
39.109185	1828.000000	
39.129692	1817.000000	
39.150200	1883.000000	
39.170708	1906.000000	
39.191215	1909.000000	
39.211723	1896.000000	
39.232231	1878.000000	
39.252739	1840.000000	
39.273246	1922.000000	
39.293754	1949.000000	
39.314262	1864.000000	
39.334769	1863.000000	
39.355277	1945.000000	
39.375785	1916.000000	
39.396292	1938.000000	
39.416800	1987.000000	
39.437308	1929.000000	
39.457816	1928.000000	
39.478323	1925.000000	
39.498831	1868.000000	
39.519339	1899.000000	
39.539846	1891.000000	
39.560354	1833.000000	
39.580862	1699.000000	
39.601369	1722.000000	
39.621877	1784.000000	
39.642385	1780.000000	
39.662893	1705.000000	
39.683400	1802.000000	
39.703908	1763.000000	
39.724416	1717.000000	
39.744923	1718.000000	
39.765431	1752.000000	
39.785939	1745.000000	
39.806446	1701.000000	
39.826954	1748.000000	
39.847462	1759.000000	
39.867970	1801.000000	
39.888477	1904.000000	
39.908985	1830.000000	
39.929493	1796.000000	
39.950000	1776.000000	
39.970508	1843.000000	
39.991016	1864.000000	
40.011523	1837.000000	
40.032031	1932.000000	
40.052539	1883.000000	
40.073047	1897.000000	
40.093554	1987.000000	
40.114062	2019.000000	
40.134570	1941.000000	
40.155077	1947.000000	
40.175585	1930.000000	
40.196093	1962.000000	
40.216600	1929.000000	
40.237108	1983.000000	
40.257616	2012.000000	
40.278124	2101.000000	
40.298631	2090.000000	
40.319139	2102.000000	
40.339647	2093.000000	
40.360154	2042.000000	
40.380662	2154.000000	
40.401170	2116.000000	
40.421678	2152.000000	
40.442185	2167.000000	
40.462693	2156.000000	
40.483201	2283.000000	
40.503708	2169.000000	
40.524216	2255.000000	
40.544724	2092.000000	
40.565231	2074.000000	
40.585739	2098.000000	
40.606247	2049.000000	
40.626755	2033.000000	
40.647262	2084.000000	
40.667770	2071.000000	
40.688278	2008.000000	
40.708785	2039.000000	
40.729293	2007.000000	
40.749801	2045.000000	
40.770308	1924.000000	
40.790816	2025.000000	
40.811324	2079.000000	
40.831832	1947.000000	
40.852339	1917.000000	
40.872847	1943.000000	
40.893355	2051.000000	
40.913862	2027.000000	
40.934370	2029.000000	
40.954878	2020.000000	
40.975385	2149.000000	
40.995893	2043.000000	
41.016401	2214.000000	
41.036909	2215.000000	
41.057416	2164.000000	
41.077924	2141.000000	
41.098432	2258.000000	
41.118939	2202.000000	
41.139447	2188.000000	
41.159955	2211.000000	
41.180462	2212.000000	
41.200970	2156.000000	
41.221478	2162.000000	
41.241986	2265.000000	
41.262493	2285.000000	
41.283001	2308.000000	
41.303509	2201.000000	
41.324016	2218.000000	
41.344524	2209.000000	
41.365032	2183.000000	
41.385539	2207.000000	
41.406047	2002.000000	
41.426555	2045.000000	
41.447063	2055.000000	
41.467570	1972.000000	
41.488078	1992.000000	
41.508586	1904.000000	
41.529093	1867.000000	
41.549601	1807.000000	
41.570109	1805.000000	
41.590616	1803.000000	
41.611124	1848.000000	
41.631632	1865.000000	
41.652140	1832.000000	
41.672647	1815.000000	
41.693155	1763.000000	
41.713663	1804.000000	
41.734170	1780.000000	
41.754678	1745.000000	
41.775186	1779.000000	
41.795693	1751.000000	
41.816201	1671.000000	
41.836709	1731.000000	
41.857217	1679.000000	
41.877724	1620.000000	
41.898232	1667.000000	
41.918740	1664.000000	
41.939247	1636.000000	
41.959755	1609.000000	
41.980263	1575.000000	
42.000771	1499.000000	
42.021278	1605.000000	
42.041786	1513.000000	
42.062294	1462.000000	
42.082801	1488.000000	
42.103309	1495.000000	
42.123817	1534.000000	
42.144324	1419.000000	
42.164832	1449.000000	
42.185340	1522.000000	
42.205848	1407.000000	
42.226355	1384.000000	
42.246863	1425.000000	
42.267371	1474.000000	
42.287878	1398.000000	
42.308386	1443.000000	
42.328894	1382.000000	
42.349401	1345.000000	
42.369909	1367.000000	
42.390417	1413.000000	
42.410925	1462.000000	
42.431432	1367.000000	
42.451940	1417.000000	
42.472448	1366.000000	
42.492955	1409.000000	
42.513463	1383.000000	
42.533971	1393.000000	
42.554478	1362.000000	
42.574986	1408.000000	
42.595494	1441.000000	
42.616002	1434.000000	
42.636509	1433.000000	
42.657017	1431.000000	
42.677525	1473.000000	
42.698032	1445.000000	
42.718540	1415.000000	
42.739048	1464.000000	
42.759555	1510.000000	
42.780063	1482.000000	
42.800571	1533.000000	
42.821079	1429.000000	
42.841586	1471.000000	
42.862094	1443.000000	
42.882602	1532.000000	
42.903109	1483.000000	
42.923617	1535.000000	
42.944125	1566.000000	
42.964632	1494.000000	
42.985140	1526.000000	
43.005648	1499.000000	
43.026156	1555.000000	
43.046663	1570.000000	
43.067171	1550.000000	
43.087679	1465.000000	
43.108186	1510.000000	
43.128694	1519.000000	
43.149202	1526.000000	
43.169709	1542.000000	
43.190217	1637.000000	
43.210725	1587.000000	
43.231233	1561.000000	
43.251740	1487.000000	
43.272248	1585.000000	
43.292756	1637.000000	
43.313263	1609.000000	
43.333771	1656.000000	
43.354279	1610.000000	
43.374786	1576.000000	
43.395294	1633.000000	
43.415802	1602.000000	
43.436310	1578.000000	
43.456817	1633.000000	
43.477325	1629.000000	
43.497833	1532.000000	
43.518340	1572.000000	
43.538848	1655.000000	
43.559356	1642.000000	
43.579864	1608.000000	
43.600371	1674.000000	
43.620879	1595.000000	
43.641387	1573.000000	
43.661894	1630.000000	
43.682402	1559.000000	
43.702910	1666.000000	
43.723417	1656.000000	
43.743925	1587.000000	
43.764433	1550.000000	
43.784941	1683.000000	
43.805448	1569.000000	
43.825956	1618.000000	
43.846464	1574.000000	
43.866971	1633.000000	
43.887479	1615.000000	
43.907987	1606.000000	
43.928494	1603.000000	
43.949002	1644.000000	
43.969510	1649.000000	
43.990018	1700.000000	
44.010525	1679.000000	
44.031033	1716.000000	
44.051541	1662.000000	
44.072048	1698.000000	
44.092556	1637.000000	
44.113064	1766.000000	
44.133571	1722.000000	
44.154079	1841.000000	
44.174587	1707.000000	
44.195095	1784.000000	
44.215602	1850.000000	
44.236110	1842.000000	
44.256618	1738.000000	
44.277125	1846.000000	
44.297633	1735.000000	
44.318141	1730.000000	
44.338648	1643.000000	
44.359156	1711.000000	
44.379664	1587.000000	
44.400172	1628.000000	
44.420679	1657.000000	
44.441187	1613.000000	
44.461695	1585.000000	
44.482202	1575.000000	
44.502710	1640.000000	
44.523218	1643.000000	
44.543725	1533.000000	
44.564233	1638.000000	
44.584741	1571.000000	
44.605249	1652.000000	
44.625756	1677.000000	
44.646264	1519.000000	
44.666772	1635.000000	
44.687279	1622.000000	
44.707787	1587.000000	
44.728295	1592.000000	
44.748802	1536.000000	
44.769310	1598.000000	
44.789818	1583.000000	
44.810326	1587.000000	
44.830833	1599.000000	
44.851341	1593.000000	
44.871849	1570.000000	
44.892356	1667.000000	
44.912864	1654.000000	
44.933372	1596.000000	
44.953879	1645.000000	
44.974387	1664.000000	
44.994895	1664.000000	
45.015403	1729.000000	
45.035910	1699.000000	
45.056418	1783.000000	
45.076926	1680.000000	
45.097433	1768.000000	
45.117941	1808.000000	
45.138449	1901.000000	
45.158957	1901.000000	
45.179464	1932.000000	
45.199972	1920.000000	
45.220480	1960.000000	
45.240987	1956.000000	
45.261495	1981.000000	
45.282003	2027.000000	
45.302510	1943.000000	
45.323018	2058.000000	
45.343526	2067.000000	
45.364034	2083.000000	
45.384541	2036.000000	
45.405049	2106.000000	
45.425557	1985.000000	
45.446064	2028.000000	
45.466572	1894.000000	
45.487080	1881.000000	
45.507587	1889.000000	
45.528095	1920.000000	
45.548603	1897.000000	
45.569111	1874.000000	
45.589618	1867.000000	
45.610126	1902.000000	
45.630634	1895.000000	
45.651141	1986.000000	
45.671649	2034.000000	
45.692157	2081.000000	
45.712664	2050.000000	
45.733172	1991.000000	
45.753680	2088.000000	
45.774188	2062.000000	
45.794695	2068.000000	
45.815203	2034.000000	
45.835711	1970.000000	
45.856218	1996.000000	
45.876726	1953.000000	
45.897234	2011.000000	
45.917741	1974.000000	
45.938249	1957.000000	
45.958757	1933.000000	
45.979265	1814.000000	
45.999772	1824.000000	
46.020280	1818.000000	
46.040788	1710.000000	
46.061295	1707.000000	
46.081803	1694.000000	
46.102311	1648.000000	
46.122818	1586.000000	
46.143326	1602.000000	
46.163834	1586.000000	
46.184342	1651.000000	
46.204849	1685.000000	
46.225357	1666.000000	
46.245865	1672.000000	
46.266372	1625.000000	
46.286880	1647.000000	
46.307388	1681.000000	
46.327895	1693.000000	
46.348403	1597.000000	
46.368911	1590.000000	
46.389419	1591.000000	
46.409926	1568.000000	
46.430434	1578.000000	
46.450942	1502.000000	
46.471449	1543.000000	
46.491957	1526.000000	
46.512465	1550.000000	
46.532972	1510.000000	
46.553480	1528.000000	
46.573988	1530.000000	
46.594496	1443.000000	
46.615003	1498.000000	
46.635511	1446.000000	
46.656019	1445.000000	
46.676526	1508.000000	
46.697034	1489.000000	
46.717542	1459.000000	
46.738050	1495.000000	
46.758557	1509.000000	
46.779065	1602.000000	
46.799573	1516.000000	
46.820080	1440.000000	
46.840588	1495.000000	
46.861096	1505.000000	
46.881603	1503.000000	
46.902111	1532.000000	
46.922619	1474.000000	
46.943127	1544.000000	
46.963634	1477.000000	
46.984142	1472.000000	
47.004650	1454.000000	
47.025157	1448.000000	
47.045665	1472.000000	
47.066173	1480.000000	
47.086680	1480.000000	
47.107188	1416.000000	
47.127696	1463.000000	
47.148204	1446.000000	
47.168711	1442.000000	
47.189219	1428.000000	
47.209727	1391.000000	
47.230234	1442.000000	
47.250742	1334.000000	
47.271250	1435.000000	
47.291757	1400.000000	
47.312265	1383.000000	
47.332773	1461.000000	
47.353281	1462.000000	
47.373788	1393.000000	
47.394296	1407.000000	
47.414804	1455.000000	
47.435311	1492.000000	
47.455819	1457.000000	
47.476327	1446.000000	
47.496834	1435.000000	
47.517342	1421.000000	
47.537850	1489.000000	
47.558358	1482.000000	
47.578865	1504.000000	
47.599373	1429.000000	
47.619881	1485.000000	
47.640388	1462.000000	
47.660896	1532.000000	
47.681404	1533.000000	
47.701911	1479.000000	
47.722419	1433.000000	
47.742927	1433.000000	
47.763435	1544.000000	
47.783942	1403.000000	
47.804450	1368.000000	
47.824958	1360.000000	
47.845465	1427.000000	
47.865973	1376.000000	
47.886481	1381.000000	
47.906988	1392.000000	
47.927496	1303.000000	
47.948004	1377.000000	
47.968512	1369.000000	
47.989019	1306.000000	
48.009527	1306.000000	
48.030035	1384.000000	
48.050542	1228.000000	
48.071050	1283.000000	
48.091558	1368.000000	
48.112065	1345.000000	
48.132573	1294.000000	
48.153081	1290.000000	
48.173589	1251.000000	
48.194096	1299.000000	
48.214604	1299.000000	
48.235112	1332.000000	
48.255619	1333.000000	
48.276127	1402.000000	
48.296635	1308.000000	
48.317143	1312.000000	
48.337650	1335.000000	
48.358158	1342.000000	
48.378666	1358.000000	
48.399173	1357.000000	
48.419681	1325.000000	
48.440189	1362.000000	
48.460696	1362.000000	
48.481204	1406.000000	
48.501712	1381.000000	
48.522220	1427.000000	
48.542727	1451.000000	
48.563235	1437.000000	
48.583743	1430.000000	
48.604250	1409.000000	
48.624758	1416.000000	
48.645266	1431.000000	
48.665773	1483.000000	
48.686281	1403.000000	
48.706789	1501.000000	
48.727297	1481.000000	
48.747804	1430.000000	
48.768312	1527.000000	
48.788820	1533.000000	
48.809327	1578.000000	
48.829835	1484.000000	
48.850343	1446.000000	
48.870850	1479.000000	
48.891358	1473.000000	
48.911866	1550.000000	
48.932374	1478.000000	
48.952881	1503.000000	
48.973389	1427.000000	
48.993897	1466.000000	
49.014404	1472.000000	
49.034912	1451.000000	
49.055420	1437.000000	
49.075927	1418.000000	
49.096435	1425.000000	
49.116943	1407.000000	
49.137451	1387.000000	
49.157958	1442.000000	
49.178466	1402.000000	
49.198974	1394.000000	
49.219481	1434.000000	
49.239989	1452.000000	
49.260497	1415.000000	
49.281004	1402.000000	
49.301512	1459.000000	
49.322020	1519.000000	
49.342528	1496.000000	
49.363035	1568.000000	
49.383543	1599.000000	
49.404051	1632.000000	
49.424558	1661.000000	
49.445066	1647.000000	
49.465574	1737.000000	
49.486081	1747.000000	
49.506589	1739.000000	
49.527097	1815.000000	
49.547605	1815.000000	
49.568112	1838.000000	
49.588620	1806.000000	
49.609128	1950.000000	
49.629635	1886.000000	
49.650143	1975.000000	
49.670651	2019.000000	
49.691158	1913.000000	
49.711666	1945.000000	
49.732174	1974.000000	
49.752682	1981.000000	
49.773189	1963.000000	
49.793697	1954.000000	
49.814205	1939.000000	
49.834712	1897.000000	
49.855220	1872.000000	
49.875728	1815.000000	
49.896236	1805.000000	
49.916743	1787.000000	
49.937251	1717.000000	
49.957759	1737.000000	
49.978266	1709.000000	
49.998774	1707.000000	
50.019282	1598.000000	
50.039789	1596.000000	
50.060297	1562.000000	
50.080805	1640.000000	
50.101313	1631.000000	
50.121820	1515.000000	
50.142328	1558.000000	
50.162836	1511.000000	
50.183343	1527.000000	
50.203851	1542.000000	
50.224359	1539.000000	
50.244866	1470.000000	
50.265374	1451.000000	
50.285882	1455.000000	
50.306390	1532.000000	
50.326897	1486.000000	
50.347405	1493.000000	
50.367913	1492.000000	
50.388420	1549.000000	
50.408928	1530.000000	
50.429436	1506.000000	
50.449943	1532.000000	
50.470451	1463.000000	
50.490959	1456.000000	
50.511467	1510.000000	
50.531974	1512.000000	
50.552482	1424.000000	
50.572990	1488.000000	
50.593497	1363.000000	
50.614005	1471.000000	
50.634513	1430.000000	
50.655020	1487.000000	
50.675528	1435.000000	
50.696036	1472.000000	
50.716544	1391.000000	
50.737051	1384.000000	
50.757559	1340.000000	
50.778067	1474.000000	
50.798574	1421.000000	
50.819082	1461.000000	
50.839590	1450.000000	
50.860097	1452.000000	
50.880605	1439.000000	
50.901113	1450.000000	
50.921621	1474.000000	
50.942128	1405.000000	
50.962636	1486.000000	
50.983144	1456.000000	
51.003651	1500.000000	
51.024159	1519.000000	
51.044667	1603.000000	
51.065174	1521.000000	
51.085682	1584.000000	
51.106190	1548.000000	
51.126698	1518.000000	
51.147205	1502.000000	
51.167713	1577.000000	
51.188221	1547.000000	
51.208728	1568.000000	
51.229236	1553.000000	
51.249744	1528.000000	
51.270251	1550.000000	
51.290759	1540.000000	
51.311267	1573.000000	
51.331775	1556.000000	
51.352282	1462.000000	
51.372790	1593.000000	
51.393298	1536.000000	
51.413805	1556.000000	
51.434313	1496.000000	
51.454821	1433.000000	
51.475329	1481.000000	
51.495836	1404.000000	
51.516344	1530.000000	
51.536852	1440.000000	
51.557359	1470.000000	
51.577867	1444.000000	
51.598375	1354.000000	
51.618882	1353.000000	
51.639390	1391.000000	
51.659898	1423.000000	
51.680406	1289.000000	
51.700913	1360.000000	
51.721421	1285.000000	
51.741929	1328.000000	
51.762436	1312.000000	
51.782944	1314.000000	
51.803452	1349.000000	
51.823959	1433.000000	
51.844467	1351.000000	
51.864975	1378.000000	
51.885483	1345.000000	
51.905990	1351.000000	
51.926498	1363.000000	
51.947006	1326.000000	
51.967513	1351.000000	
51.988021	1340.000000	
52.008529	1433.000000	
52.029036	1324.000000	
52.049544	1281.000000	
52.070052	1357.000000	
52.090560	1346.000000	
52.111067	1389.000000	
52.131575	1259.000000	
52.152083	1307.000000	
52.172590	1285.000000	
52.193098	1377.000000	
52.213606	1373.000000	
52.234113	1350.000000	
52.254621	1285.000000	
52.275129	1272.000000	
52.295637	1343.000000	
52.316144	1334.000000	
52.336652	1272.000000	
52.357160	1302.000000	
52.377667	1342.000000	
52.398175	1270.000000	
52.418683	1286.000000	
52.439190	1267.000000	
52.459698	1325.000000	
52.480206	1298.000000	
52.500714	1327.000000	
52.521221	1338.000000	
52.541729	1251.000000	
52.562237	1254.000000	
52.582744	1233.000000	
52.603252	1234.000000	
52.623760	1193.000000	
52.644267	1257.000000	
52.664775	1233.000000	
52.685283	1242.000000	
52.705791	1277.000000	
52.726298	1158.000000	
52.746806	1183.000000	
52.767314	1250.000000	
52.787821	1185.000000	
52.808329	1201.000000	
52.828837	1225.000000	
52.849344	1245.000000	
52.869852	1146.000000	
52.890360	1156.000000	
52.910868	1130.000000	
52.931375	1162.000000	
52.951883	1170.000000	
52.972391	1130.000000	
52.992898	1178.000000	
53.013406	1127.000000	
53.033914	1163.000000	
53.054422	1165.000000	
53.074929	1211.000000	
53.095437	1145.000000	
53.115945	1252.000000	
53.136452	1115.000000	
53.156960	1243.000000	
53.177468	1159.000000	
53.197975	1178.000000	
53.218483	1247.000000	
53.238991	1245.000000	
53.259499	1168.000000	
53.280006	1242.000000	
53.300514	1159.000000	
53.321022	1126.000000	
53.341529	1163.000000	
53.362037	1240.000000	
53.382545	1176.000000	
53.403052	1142.000000	
53.423560	1206.000000	
53.444068	1175.000000	
53.464576	1188.000000	
53.485083	1201.000000	
53.505591	1202.000000	
53.526099	1172.000000	
53.546606	1164.000000	
53.567114	1210.000000	
53.587622	1179.000000	
53.608129	1195.000000	
53.628637	1148.000000	
53.649145	1194.000000	
53.669653	1164.000000	
53.690160	1187.000000	
53.710668	1277.000000	
53.731176	1152.000000	
53.751683	1193.000000	
53.772191	1225.000000	
53.792699	1181.000000	
53.813206	1192.000000	
53.833714	1203.000000	
53.854222	1321.000000	
53.874730	1214.000000	
53.895237	1131.000000	
53.915745	1181.000000	
53.936253	1257.000000	
53.956760	1163.000000	
53.977268	1237.000000	
53.997776	1286.000000	
54.018283	1180.000000	
54.038791	1246.000000	
54.059299	1267.000000	
54.079807	1283.000000	
54.100314	1315.000000	
54.120822	1321.000000	
54.141330	1334.000000	
54.161837	1308.000000	
54.182345	1374.000000	
54.202853	1314.000000	
54.223360	1386.000000	
54.243868	1405.000000	
54.264376	1392.000000	
54.284884	1450.000000	
54.305391	1464.000000	
54.325899	1500.000000	
54.346407	1393.000000	
54.366914	1484.000000	
54.387422	1462.000000	
54.407930	1503.000000	
54.428437	1509.000000	
54.448945	1437.000000	
54.469453	1417.000000	
54.489961	1422.000000	
54.510468	1472.000000	
54.530976	1425.000000	
54.551484	1401.000000	
54.571991	1473.000000	
54.592499	1344.000000	
54.613007	1406.000000	
54.633515	1347.000000	
54.654022	1381.000000	
54.674530	1308.000000	
54.695038	1326.000000	
54.715545	1257.000000	
54.736053	1270.000000	
54.756561	1236.000000	
54.777068	1286.000000	
54.797576	1256.000000	
54.818084	1272.000000	
54.838592	1308.000000	
54.859099	1253.000000	
54.879607	1234.000000	
54.900115	1326.000000	
54.920622	1309.000000	
54.941130	1256.000000	
54.961638	1445.000000	
54.982145	1356.000000	
55.002653	1348.000000	
55.023161	1423.000000	
55.043669	1406.000000	
55.064176	1432.000000	
55.084684	1376.000000	
55.105192	1392.000000	
55.125699	1420.000000	
55.146207	1414.000000	
55.166715	1445.000000	
55.187222	1433.000000	
55.207730	1467.000000	
55.228238	1494.000000	
55.248746	1495.000000	
55.269253	1366.000000	
55.289761	1502.000000	
55.310269	1449.000000	
55.330776	1446.000000	
55.351284	1443.000000	
55.371792	1452.000000	
55.392299	1419.000000	
55.412807	1414.000000	
55.433315	1425.000000	
55.453823	1410.000000	
55.474330	1454.000000	
55.494838	1401.000000	
55.515346	1373.000000	
55.535853	1418.000000	
55.556361	1358.000000	
55.576869	1430.000000	
55.597376	1341.000000	
55.617884	1405.000000	
55.638392	1423.000000	
55.658900	1429.000000	
55.679407	1392.000000	
55.699915	1415.000000	
55.720423	1403.000000	
55.740930	1477.000000	
55.761438	1373.000000	
55.781946	1385.000000	
55.802453	1409.000000	
55.822961	1446.000000	
55.843469	1346.000000	
55.863977	1309.000000	
55.884484	1355.000000	
55.904992	1363.000000	
55.925500	1313.000000	
55.946007	1271.000000	
55.966515	1316.000000	
55.987023	1296.000000	
56.007530	1379.000000	
56.028038	1322.000000	
56.048546	1327.000000	
56.069054	1254.000000	
56.089561	1354.000000	
56.110069	1277.000000	
56.130577	1333.000000	
56.151084	1295.000000	
56.171592	1310.000000	
56.192100	1328.000000	
56.212608	1363.000000	
56.233115	1392.000000	
56.253623	1388.000000	
56.274131	1363.000000	
56.294638	1362.000000	
56.315146	1354.000000	
56.335654	1393.000000	
56.356161	1410.000000	
56.376669	1405.000000	
56.397177	1383.000000	
56.417685	1438.000000	
56.438192	1348.000000	
56.458700	1390.000000	
56.479208	1353.000000	
56.499715	1331.000000	
56.520223	1348.000000	
56.540731	1311.000000	
56.561238	1329.000000	
56.581746	1339.000000	
56.602254	1334.000000	
56.622762	1299.000000	
56.643269	1320.000000	
56.663777	1327.000000	
56.684285	1334.000000	
56.704792	1323.000000	
56.725300	1308.000000	
56.745808	1276.000000	
56.766315	1329.000000	
56.786823	1268.000000	
56.807331	1267.000000	
56.827839	1252.000000	
56.848346	1260.000000	
56.868854	1173.000000	
56.889362	1253.000000	
56.909869	1184.000000	
56.930377	1254.000000	
56.950885	1208.000000	
56.971392	1154.000000	
56.991900	1186.000000	
57.012408	1176.000000	
57.032916	1151.000000	
57.053423	1137.000000	
57.073931	1074.000000	
57.094439	1197.000000	
57.114946	1158.000000	
57.135454	1122.000000	
57.155962	1201.000000	
57.176469	1107.000000	
57.196977	1090.000000	
57.217485	1117.000000	
57.237993	1168.000000	
57.258500	1166.000000	
57.279008	1154.000000	
57.299516	1179.000000	
57.320023	1230.000000	
57.340531	1196.000000	
57.361039	1157.000000	
57.381546	1147.000000	
57.402054	1246.000000	
57.422562	1192.000000	
57.443070	1100.000000	
57.463577	1109.000000	
57.484085	1156.000000	
57.504593	1144.000000	
57.525100	1122.000000	
57.545608	1184.000000	
57.566116	1155.000000	
57.586623	1099.000000	
57.607131	1101.000000	
57.627639	1201.000000	
57.648147	1117.000000	
57.668654	1134.000000	
57.689162	1196.000000	
57.709670	1182.000000	
57.730177	1158.000000	
57.750685	1166.000000	
57.771193	1158.000000	
57.791701	1119.000000	
57.812208	1157.000000	
57.832716	1185.000000	
57.853224	1103.000000	
57.873731	1166.000000	
57.894239	1180.000000	
57.914747	1128.000000	
57.935254	1142.000000	
57.955762	1142.000000	
57.976270	1102.000000	
57.996778	1192.000000	
58.017285	1160.000000	
58.037793	1171.000000	
58.058301	1162.000000	
58.078808	1226.000000	
58.099316	1137.000000	
58.119824	1185.000000	
58.140331	1128.000000	
58.160839	1190.000000	
58.181347	1177.000000	
58.201855	1102.000000	
58.222362	1227.000000	
58.242870	1135.000000	
58.263378	1141.000000	
58.283885	1131.000000	
58.304393	1094.000000	
58.324901	1124.000000	
58.345408	1164.000000	
58.365916	1096.000000	
58.386424	1114.000000	
58.406932	1109.000000	
58.427439	1139.000000	
58.447947	1142.000000	
58.468455	1141.000000	
58.488962	1126.000000	
58.509470	1160.000000	
58.529978	1160.000000	
58.550485	1079.000000	
58.570993	1138.000000	
58.591501	1189.000000	
58.612009	1198.000000	
58.632516	1139.000000	
58.653024	1201.000000	
58.673532	1133.000000	
58.694039	1130.000000	
58.714547	1100.000000	
58.735055	1187.000000	
58.755562	1100.000000	
58.776070	1085.000000	
58.796578	1154.000000	
58.817086	1152.000000	
58.837593	1153.000000	
58.858101	1071.000000	
58.878609	1117.000000	
58.899116	1139.000000	
58.919624	1125.000000	
58.940132	1134.000000	
58.960639	1082.000000	
58.981147	1148.000000	
59.001655	1114.000000	
59.022163	1099.000000	
59.042670	1030.000000	
59.063178	1076.000000	
59.083686	1065.000000	
59.104193	1021.000000	
59.124701	1011.000000	
59.145209	1064.000000	
59.165716	1034.000000	
59.186224	1079.000000	
59.206732	1037.000000	
59.227240	1025.000000	
59.247747	1093.000000	
59.268255	1061.000000	
59.288763	1088.000000	
59.309270	1064.000000	
59.329778	1015.000000	
59.350286	1065.000000	
59.370794	1027.000000	
59.391301	1059.000000	
59.411809	1005.000000	
59.432317	1011.000000	
59.452824	965.000000	
59.473332	1010.000000	
59.493840	1042.000000	
59.514347	1095.000000	
59.534855	1052.000000	
59.555363	1051.000000	
59.575871	1081.000000	
59.596378	1030.000000	
59.616886	1011.000000	
59.637394	1033.000000	
59.657901	951.000000	
59.678409	1017.000000	
59.698917	945.000000	
59.719424	1006.000000	
59.739932	1084.000000	
59.760440	1005.000000	
59.780948	1013.000000	
59.801455	1013.000000	
59.821963	1038.000000	
59.842471	998.000000	
59.862978	1015.000000	
59.883486	977.000000	
59.903994	998.000000	
59.924501	1038.000000	
59.945009	979.000000	
59.965517	1023.000000	
59.986025	1051.000000	
60.006532	1016.000000	
