;content of C:\2026\IF\Dr-IVAN\26-02-2026\TN.raw - (Diffrac Plus V4 file)
_FILEVERSION = 3
_SAMPLE = TN
_+SAMPLE
_USER = Lab Manager
_GONIOMETER_CODE = 21
_STAGE_CODE = 7
; Goniometer : D8 theta/theta, stage : Chi drive
_SAMPLE_CHANGER_CODE = 0
_ATTACHMENTS_CODE = 0
_GONIOMETER_RADIUS = 280
_SOLLER_SLITS = 2
_FIXED_DETSLIT = 6
_MONOCHROMATOR = 0
; Incident beam monochromator : None
_BETA_FILTER = N
_ANALYZER_CODE = 0
; Received beam analyzer : None
_DATEMEASURED = 26-Feb-2026 12:22:38
_RUNTIME = 1737.827
_WL_UNIT = A
_WL1 = 1.540600
_WL2 = 1.544390
_WL3 = 1.392220
_WLRATIO = 0.500000
_ANODE = Cu
_V4_INF_USER = Lab Manager
_V4_INF_SAMPLEID = TN
_V4_INF_CREATOR = BrmlToV4Converter
_V4_INF_CREATOR_VERSION = 7.3.1.0

; Data for range 1
_DRIVE = COUPLED
_STEPTIME = 115.2
_STEPSIZE = 0.020508
_STEPMODE = C
_START = 4.000000
_THETA = 2.000000
_2THETA = 4.000000
_PHI = 236.085938
_DIVERGENCE = 0.379996
_DETECTORSLIT = out
_TIMESTARTED = 0
_ROTATION_SPEED = 15
_KV = 40
_MA = 35
_RANGE_WL = 1.541800
_3DPLANE = 0
_V4_PSD2THETA = 9999.000000
_V4_PSDCHANNEL1 = 0
_V4_PSDAPERTURE = 2.953109
_V4_PSDTYPE = 5
_V4_PSDFIXED = 0
_V4_COUNTERS_MASK = 1
_V4_DRIVES_MASK = 0
_V4_ENCODERS_MASK = 0
_2THETACOUNTS = 1
; 2THETA	Cnt2_D1	
4.000000	470.000000	
4.020508	479.000000	
4.041015	436.000000	
4.061523	421.000000	
4.082031	430.000000	
4.102539	462.000000	
4.123046	444.000000	
4.143554	414.000000	
4.164062	427.000000	
4.184569	438.000000	
4.205077	399.000000	
4.225585	402.000000	
4.246092	408.000000	
4.266600	392.000000	
4.287108	414.000000	
4.307616	401.000000	
4.328123	420.000000	
4.348631	401.000000	
4.369139	392.000000	
4.389646	420.000000	
4.410154	381.000000	
4.430662	373.000000	
4.451169	385.000000	
4.471677	372.000000	
4.492185	391.000000	
4.512693	391.000000	
4.533200	397.000000	
4.553708	377.000000	
4.574216	397.000000	
4.594723	350.000000	
4.615231	373.000000	
4.635739	377.000000	
4.656246	351.000000	
4.676754	370.000000	
4.697262	396.000000	
4.717770	355.000000	
4.738277	365.000000	
4.758785	340.000000	
4.779293	380.000000	
4.799800	383.000000	
4.820308	353.000000	
4.840816	348.000000	
4.861323	368.000000	
4.881831	368.000000	
4.902339	369.000000	
4.922847	344.000000	
4.943354	364.000000	
4.963862	353.000000	
4.984370	366.000000	
5.004877	382.000000	
5.025385	338.000000	
5.045893	369.000000	
5.066400	374.000000	
5.086908	348.000000	
5.107416	385.000000	
5.127924	383.000000	
5.148431	322.000000	
5.168939	337.000000	
5.189447	327.000000	
5.209954	356.000000	
5.230462	362.000000	
5.250970	363.000000	
5.271477	350.000000	
5.291985	359.000000	
5.312493	368.000000	
5.333001	350.000000	
5.353508	331.000000	
5.374016	342.000000	
5.394524	334.000000	
5.415031	384.000000	
5.435539	341.000000	
5.456047	373.000000	
5.476554	339.000000	
5.497062	322.000000	
5.517570	378.000000	
5.538078	340.000000	
5.558585	354.000000	
5.579093	302.000000	
5.599601	329.000000	
5.620108	331.000000	
5.640616	358.000000	
5.661124	345.000000	
5.681632	352.000000	
5.702139	358.000000	
5.722647	366.000000	
5.743155	335.000000	
5.763662	333.000000	
5.784170	377.000000	
5.804678	322.000000	
5.825185	342.000000	
5.845693	353.000000	
5.866201	373.000000	
5.886709	350.000000	
5.907216	353.000000	
5.927724	357.000000	
5.948232	331.000000	
5.968739	318.000000	
5.989247	317.000000	
6.009755	383.000000	
6.030262	357.000000	
6.050770	353.000000	
6.071278	365.000000	
6.091786	353.000000	
6.112293	336.000000	
6.132801	371.000000	
6.153309	370.000000	
6.173816	314.000000	
6.194324	365.000000	
6.214832	307.000000	
6.235339	331.000000	
6.255847	360.000000	
6.276355	341.000000	
6.296863	318.000000	
6.317370	369.000000	
6.337878	352.000000	
6.358386	363.000000	
6.378893	334.000000	
6.399401	369.000000	
6.419909	369.000000	
6.440416	332.000000	
6.460924	352.000000	
6.481432	320.000000	
6.501940	370.000000	
6.522447	325.000000	
6.542955	319.000000	
6.563463	367.000000	
6.583970	320.000000	
6.604478	362.000000	
6.624986	350.000000	
6.645493	339.000000	
6.666001	376.000000	
6.686509	355.000000	
6.707017	322.000000	
6.727524	325.000000	
6.748032	369.000000	
6.768540	366.000000	
6.789047	336.000000	
6.809555	367.000000	
6.830063	340.000000	
6.850570	367.000000	
6.871078	322.000000	
6.891586	321.000000	
6.912094	360.000000	
6.932601	341.000000	
6.953109	368.000000	
6.973617	337.000000	
6.994124	353.000000	
7.014632	361.000000	
7.035140	361.000000	
7.055647	370.000000	
7.076155	311.000000	
7.096663	313.000000	
7.117171	360.000000	
7.137678	331.000000	
7.158186	356.000000	
7.178694	370.000000	
7.199201	335.000000	
7.219709	310.000000	
7.240217	349.000000	
7.260725	356.000000	
7.281232	332.000000	
7.301740	330.000000	
7.322248	343.000000	
7.342755	363.000000	
7.363263	324.000000	
7.383771	369.000000	
7.404278	336.000000	
7.424786	366.000000	
7.445294	336.000000	
7.465802	376.000000	
7.486309	362.000000	
7.506817	365.000000	
7.527325	333.000000	
7.547832	366.000000	
7.568340	338.000000	
7.588848	364.000000	
7.609355	345.000000	
7.629863	365.000000	
7.650371	343.000000	
7.670879	346.000000	
7.691386	336.000000	
7.711894	368.000000	
7.732402	347.000000	
7.752909	338.000000	
7.773417	314.000000	
7.793925	374.000000	
7.814432	376.000000	
7.834940	356.000000	
7.855448	359.000000	
7.875956	352.000000	
7.896463	361.000000	
7.916971	375.000000	
7.937479	348.000000	
7.957986	320.000000	
7.978494	356.000000	
7.999002	335.000000	
8.019509	358.000000	
8.040017	380.000000	
8.060525	375.000000	
8.081033	355.000000	
8.101540	351.000000	
8.122048	363.000000	
8.142556	393.000000	
8.163063	366.000000	
8.183571	356.000000	
8.204079	359.000000	
8.224586	355.000000	
8.245094	366.000000	
8.265602	372.000000	
8.286110	361.000000	
8.306617	319.000000	
8.327125	371.000000	
8.347633	351.000000	
8.368140	376.000000	
8.388648	351.000000	
8.409156	361.000000	
8.429663	376.000000	
8.450171	368.000000	
8.470679	383.000000	
8.491187	342.000000	
8.511694	370.000000	
8.532202	355.000000	
8.552710	380.000000	
8.573217	383.000000	
8.593725	339.000000	
8.614233	353.000000	
8.634740	390.000000	
8.655248	388.000000	
8.675756	337.000000	
8.696264	366.000000	
8.716771	366.000000	
8.737279	401.000000	
8.757787	362.000000	
8.778294	332.000000	
8.798802	382.000000	
8.819310	343.000000	
8.839818	387.000000	
8.860325	368.000000	
8.880833	359.000000	
8.901341	372.000000	
8.921848	382.000000	
8.942356	416.000000	
8.962864	431.000000	
8.983371	380.000000	
9.003879	412.000000	
9.024387	354.000000	
9.044895	383.000000	
9.065402	435.000000	
9.085910	366.000000	
9.106418	364.000000	
9.126925	363.000000	
9.147433	380.000000	
9.167941	383.000000	
9.188448	375.000000	
9.208956	417.000000	
9.229464	413.000000	
9.249972	396.000000	
9.270479	381.000000	
9.290987	408.000000	
9.311495	385.000000	
9.332002	377.000000	
9.352510	388.000000	
9.373018	413.000000	
9.393525	418.000000	
9.414033	421.000000	
9.434541	424.000000	
9.455049	361.000000	
9.475556	377.000000	
9.496064	373.000000	
9.516572	433.000000	
9.537079	403.000000	
9.557587	418.000000	
9.578095	417.000000	
9.598602	370.000000	
9.619110	430.000000	
9.639618	418.000000	
9.660126	431.000000	
9.680633	425.000000	
9.701141	393.000000	
9.721649	438.000000	
9.742156	459.000000	
9.762664	427.000000	
9.783172	436.000000	
9.803679	443.000000	
9.824187	468.000000	
9.844695	394.000000	
9.865203	395.000000	
9.885710	473.000000	
9.906218	408.000000	
9.926726	426.000000	
9.947233	482.000000	
9.967741	442.000000	
9.988249	396.000000	
10.008756	439.000000	
10.029264	472.000000	
10.049772	482.000000	
10.070280	476.000000	
10.090787	442.000000	
10.111295	422.000000	
10.131803	487.000000	
10.152310	450.000000	
10.172818	481.000000	
10.193326	456.000000	
10.213833	450.000000	
10.234341	511.000000	
10.254849	515.000000	
10.275357	523.000000	
10.295864	479.000000	
10.316372	503.000000	
10.336880	462.000000	
10.357387	506.000000	
10.377895	525.000000	
10.398403	522.000000	
10.418911	534.000000	
10.439418	591.000000	
10.459926	588.000000	
10.480434	601.000000	
10.500941	679.000000	
10.521449	618.000000	
10.541957	670.000000	
10.562464	668.000000	
10.582972	773.000000	
10.603480	775.000000	
10.623988	786.000000	
10.644495	886.000000	
10.665003	925.000000	
10.685511	983.000000	
10.706018	1108.000000	
10.726526	1146.000000	
10.747034	1322.000000	
10.767541	1520.000000	
10.788049	1637.000000	
10.808557	1992.000000	
10.829065	2137.000000	
10.849572	2432.000000	
10.870080	2522.000000	
10.890588	2531.000000	
10.911095	2366.000000	
10.931603	1978.000000	
10.952111	1573.000000	
10.972618	1325.000000	
10.993126	1070.000000	
11.013634	926.000000	
11.034142	848.000000	
11.054649	803.000000	
11.075157	798.000000	
11.095665	741.000000	
11.116172	697.000000	
11.136680	702.000000	
11.157188	776.000000	
11.177695	730.000000	
11.198203	756.000000	
11.218711	790.000000	
11.239219	853.000000	
11.259726	840.000000	
11.280234	945.000000	
11.300742	1039.000000	
11.321249	1088.000000	
11.341757	1184.000000	
11.362265	1287.000000	
11.382772	1409.000000	
11.403280	1488.000000	
11.423788	1732.000000	
11.444296	1849.000000	
11.464803	1928.000000	
11.485311	2263.000000	
11.505819	2581.000000	
11.526326	2947.000000	
11.546834	3556.000000	
11.567342	4168.000000	
11.587849	5132.000000	
11.608357	6151.000000	
11.628865	7486.000000	
11.649373	9099.000000	
11.669880	11027.000000	
11.690388	12710.000000	
11.710896	14148.000000	
11.731403	13753.000000	
11.751911	10598.000000	
11.772419	6797.000000	
11.792926	3771.000000	
11.813434	2169.000000	
11.833942	1639.000000	
11.854450	1448.000000	
11.874957	1252.000000	
11.895465	1112.000000	
11.915973	1155.000000	
11.936480	1049.000000	
11.956988	1005.000000	
11.977496	964.000000	
11.998004	966.000000	
12.018511	945.000000	
12.039019	889.000000	
12.059527	917.000000	
12.080034	903.000000	
12.100542	888.000000	
12.121050	878.000000	
12.141557	843.000000	
12.162065	851.000000	
12.182573	804.000000	
12.203081	865.000000	
12.223588	833.000000	
12.244096	857.000000	
12.264604	848.000000	
12.285111	892.000000	
12.305619	920.000000	
12.326127	815.000000	
12.346634	872.000000	
12.367142	874.000000	
12.387650	929.000000	
12.408158	833.000000	
12.428665	887.000000	
12.449173	824.000000	
12.469681	845.000000	
12.490188	882.000000	
12.510696	838.000000	
12.531204	860.000000	
12.551711	825.000000	
12.572219	910.000000	
12.592727	951.000000	
12.613235	865.000000	
12.633742	934.000000	
12.654250	907.000000	
12.674758	961.000000	
12.695265	934.000000	
12.715773	957.000000	
12.736281	969.000000	
12.756788	945.000000	
12.777296	916.000000	
12.797804	913.000000	
12.818312	924.000000	
12.838819	905.000000	
12.859327	867.000000	
12.879835	871.000000	
12.900342	866.000000	
12.920850	916.000000	
12.941358	894.000000	
12.961865	936.000000	
12.982373	915.000000	
13.002881	877.000000	
13.023389	869.000000	
13.043896	855.000000	
13.064404	899.000000	
13.084912	884.000000	
13.105419	910.000000	
13.125927	899.000000	
13.146435	898.000000	
13.166942	822.000000	
13.187450	865.000000	
13.207958	917.000000	
13.228466	895.000000	
13.248973	935.000000	
13.269481	906.000000	
13.289989	892.000000	
13.310496	838.000000	
13.331004	855.000000	
13.351512	893.000000	
13.372019	895.000000	
13.392527	928.000000	
13.413035	911.000000	
13.433543	884.000000	
13.454050	909.000000	
13.474558	947.000000	
13.495066	926.000000	
13.515573	933.000000	
13.536081	898.000000	
13.556589	903.000000	
13.577097	872.000000	
13.597604	927.000000	
13.618112	932.000000	
13.638620	912.000000	
13.659127	889.000000	
13.679635	909.000000	
13.700143	939.000000	
13.720650	912.000000	
13.741158	993.000000	
13.761666	923.000000	
13.782174	933.000000	
13.802681	894.000000	
13.823189	914.000000	
13.843697	943.000000	
13.864204	892.000000	
13.884712	951.000000	
13.905220	917.000000	
13.925727	1009.000000	
13.946235	980.000000	
13.966743	933.000000	
13.987251	924.000000	
14.007758	978.000000	
14.028266	970.000000	
14.048774	967.000000	
14.069281	910.000000	
14.089789	977.000000	
14.110297	983.000000	
14.130804	946.000000	
14.151312	949.000000	
14.171820	975.000000	
14.192328	981.000000	
14.212835	1018.000000	
14.233343	1029.000000	
14.253851	986.000000	
14.274358	1074.000000	
14.294866	1049.000000	
14.315374	1015.000000	
14.335881	1017.000000	
14.356389	995.000000	
14.376897	1110.000000	
14.397405	1110.000000	
14.417912	1115.000000	
14.438420	1124.000000	
14.458928	1206.000000	
14.479435	1194.000000	
14.499943	1259.000000	
14.520451	1290.000000	
14.540958	1316.000000	
14.561466	1385.000000	
14.581974	1405.000000	
14.602482	1550.000000	
14.622989	1511.000000	
14.643497	1534.000000	
14.664005	1584.000000	
14.684512	1539.000000	
14.705020	1502.000000	
14.725528	1307.000000	
14.746035	1223.000000	
14.766543	1087.000000	
14.787051	1096.000000	
14.807559	1071.000000	
14.828066	1057.000000	
14.848574	1045.000000	
14.869082	1090.000000	
14.889589	1058.000000	
14.910097	1036.000000	
14.930605	1026.000000	
14.951112	1088.000000	
14.971620	994.000000	
14.992128	1069.000000	
15.012636	1047.000000	
15.033143	1000.000000	
15.053651	1005.000000	
15.074159	1027.000000	
15.094666	1073.000000	
15.115174	1096.000000	
15.135682	1054.000000	
15.156190	1078.000000	
15.176697	1028.000000	
15.197205	1015.000000	
15.217713	1069.000000	
15.238220	1003.000000	
15.258728	1059.000000	
15.279236	1101.000000	
15.299743	1090.000000	
15.320251	1111.000000	
15.340759	1081.000000	
15.361267	1075.000000	
15.381774	1103.000000	
15.402282	1113.000000	
15.422790	1099.000000	
15.443297	1169.000000	
15.463805	1136.000000	
15.484313	1198.000000	
15.504820	1136.000000	
15.525328	1143.000000	
15.545836	1192.000000	
15.566344	1178.000000	
15.586851	1209.000000	
15.607359	1160.000000	
15.627867	1287.000000	
15.648374	1323.000000	
15.668882	1283.000000	
15.689390	1393.000000	
15.709897	1430.000000	
15.730405	1405.000000	
15.750913	1539.000000	
15.771421	1478.000000	
15.791928	1639.000000	
15.812436	1588.000000	
15.832944	1655.000000	
15.853451	1682.000000	
15.873959	1778.000000	
15.894467	1877.000000	
15.914974	1849.000000	
15.935482	1933.000000	
15.955990	1954.000000	
15.976498	1970.000000	
15.997005	2023.000000	
16.017513	1828.000000	
16.038021	1876.000000	
16.058528	1692.000000	
16.079036	1711.000000	
16.099544	1636.000000	
16.120051	1552.000000	
16.140559	1550.000000	
16.161067	1548.000000	
16.181575	1474.000000	
16.202082	1519.000000	
16.222590	1520.000000	
16.243098	1465.000000	
16.263605	1417.000000	
16.284113	1451.000000	
16.304621	1436.000000	
16.325128	1485.000000	
16.345636	1459.000000	
16.366144	1468.000000	
16.386652	1457.000000	
16.407159	1415.000000	
16.427667	1393.000000	
16.448175	1360.000000	
16.468682	1353.000000	
16.489190	1352.000000	
16.509698	1338.000000	
16.530205	1272.000000	
16.550713	1298.000000	
16.571221	1289.000000	
16.591729	1323.000000	
16.612236	1273.000000	
16.632744	1230.000000	
16.653252	1217.000000	
16.673759	1251.000000	
16.694267	1329.000000	
16.714775	1293.000000	
16.735283	1276.000000	
16.755790	1259.000000	
16.776298	1292.000000	
16.796806	1282.000000	
16.817313	1328.000000	
16.837821	1416.000000	
16.858329	1486.000000	
16.878836	1446.000000	
16.899344	1466.000000	
16.919852	1539.000000	
16.940360	1677.000000	
16.960867	1644.000000	
16.981375	1841.000000	
17.001883	1912.000000	
17.022390	1949.000000	
17.042898	1942.000000	
17.063406	2072.000000	
17.083913	2282.000000	
17.104421	2433.000000	
17.124929	2514.000000	
17.145437	2740.000000	
17.165944	2714.000000	
17.186452	3048.000000	
17.206960	3171.000000	
17.227467	3468.000000	
17.247975	3633.000000	
17.268483	3956.000000	
17.288990	4277.000000	
17.309498	4353.000000	
17.330006	4530.000000	
17.350514	4771.000000	
17.371021	4604.000000	
17.391529	4492.000000	
17.412037	4126.000000	
17.432544	3746.000000	
17.453052	3464.000000	
17.473560	2959.000000	
17.494067	2625.000000	
17.514575	2353.000000	
17.535083	2156.000000	
17.555591	2044.000000	
17.576098	1940.000000	
17.596606	1791.000000	
17.617114	1827.000000	
17.637621	1673.000000	
17.658129	1653.000000	
17.678637	1624.000000	
17.699144	1597.000000	
17.719652	1608.000000	
17.740160	1602.000000	
17.760668	1577.000000	
17.781175	1590.000000	
17.801683	1650.000000	
17.822191	1561.000000	
17.842698	1633.000000	
17.863206	1722.000000	
17.883714	1763.000000	
17.904221	1811.000000	
17.924729	1813.000000	
17.945237	1829.000000	
17.965745	2028.000000	
17.986252	1979.000000	
18.006760	2146.000000	
18.027268	2301.000000	
18.047775	2462.000000	
18.068283	2522.000000	
18.088791	2833.000000	
18.109298	3043.000000	
18.129806	3313.000000	
18.150314	3547.000000	
18.170822	3876.000000	
18.191329	4245.000000	
18.211837	4661.000000	
18.232345	5020.000000	
18.252852	5497.000000	
18.273360	5952.000000	
18.293868	6395.000000	
18.314376	6875.000000	
18.334883	7556.000000	
18.355391	8159.000000	
18.375899	8842.000000	
18.396406	9530.000000	
18.416914	10047.000000	
18.437422	10604.000000	
18.457929	11058.000000	
18.478437	11345.000000	
18.498945	11558.000000	
18.519453	11115.000000	
18.539960	10436.000000	
18.560468	9468.000000	
18.580976	8370.000000	
18.601483	7233.000000	
18.621991	6234.000000	
18.642499	5270.000000	
18.663006	4524.000000	
18.683514	4006.000000	
18.704022	3514.000000	
18.724530	3123.000000	
18.745037	2821.000000	
18.765545	2618.000000	
18.786053	2372.000000	
18.806560	2182.000000	
18.827068	2114.000000	
18.847576	2058.000000	
18.868083	1971.000000	
18.888591	1757.000000	
18.909099	1797.000000	
18.929607	1843.000000	
18.950114	1745.000000	
18.970622	1696.000000	
18.991130	1750.000000	
19.011637	1686.000000	
19.032145	1637.000000	
19.052653	1623.000000	
19.073160	1601.000000	
19.093668	1580.000000	
19.114176	1536.000000	
19.134684	1608.000000	
19.155191	1618.000000	
19.175699	1569.000000	
19.196207	1543.000000	
19.216714	1624.000000	
19.237222	1491.000000	
19.257730	1447.000000	
19.278237	1518.000000	
19.298745	1498.000000	
19.319253	1474.000000	
19.339761	1544.000000	
19.360268	1472.000000	
19.380776	1479.000000	
19.401284	1464.000000	
19.421791	1397.000000	
19.442299	1477.000000	
19.462807	1474.000000	
19.483314	1461.000000	
19.503822	1463.000000	
19.524330	1485.000000	
19.544838	1541.000000	
19.565345	1501.000000	
19.585853	1525.000000	
19.606361	1542.000000	
19.626868	1519.000000	
19.647376	1484.000000	
19.667884	1569.000000	
19.688391	1526.000000	
19.708899	1574.000000	
19.729407	1681.000000	
19.749915	1558.000000	
19.770422	1656.000000	
19.790930	1698.000000	
19.811438	1657.000000	
19.831945	1730.000000	
19.852453	1720.000000	
19.872961	1768.000000	
19.893469	1818.000000	
19.913976	1793.000000	
19.934484	1858.000000	
19.954992	1828.000000	
19.975499	1952.000000	
19.996007	1989.000000	
20.016515	2050.000000	
20.037022	2087.000000	
20.057530	2231.000000	
20.078038	2191.000000	
20.098546	2255.000000	
20.119053	2213.000000	
20.139561	2196.000000	
20.160069	2095.000000	
20.180576	2043.000000	
20.201084	2074.000000	
20.221592	2023.000000	
20.242099	1977.000000	
20.262607	2014.000000	
20.283115	1916.000000	
20.303623	1915.000000	
20.324130	1876.000000	
20.344638	1875.000000	
20.365146	1931.000000	
20.385653	1906.000000	
20.406161	1836.000000	
20.426669	1877.000000	
20.447176	1841.000000	
20.467684	1803.000000	
20.488192	1697.000000	
20.508700	1693.000000	
20.529207	1668.000000	
20.549715	1672.000000	
20.570223	1583.000000	
20.590730	1651.000000	
20.611238	1564.000000	
20.631746	1625.000000	
20.652253	1659.000000	
20.672761	1649.000000	
20.693269	1601.000000	
20.713777	1679.000000	
20.734284	1644.000000	
20.754792	1596.000000	
20.775300	1630.000000	
20.795807	1656.000000	
20.816315	1573.000000	
20.836823	1735.000000	
20.857330	1642.000000	
20.877838	1669.000000	
20.898346	1590.000000	
20.918854	1726.000000	
20.939361	1717.000000	
20.959869	1818.000000	
20.980377	1843.000000	
21.000884	1906.000000	
21.021392	1966.000000	
21.041900	2103.000000	
21.062407	2126.000000	
21.082915	2213.000000	
21.103423	2316.000000	
21.123931	2325.000000	
21.144438	2544.000000	
21.164946	2544.000000	
21.185454	2683.000000	
21.205961	2742.000000	
21.226469	2954.000000	
21.246977	3066.000000	
21.267484	3259.000000	
21.287992	3386.000000	
21.308500	3479.000000	
21.329008	3724.000000	
21.349515	3911.000000	
21.370023	4068.000000	
21.390531	4233.000000	
21.411038	4365.000000	
21.431546	4084.000000	
21.452054	3874.000000	
21.472562	3447.000000	
21.493069	3085.000000	
21.513577	2968.000000	
21.534085	2665.000000	
21.554592	2526.000000	
21.575100	2487.000000	
21.595608	2420.000000	
21.616115	2452.000000	
21.636623	2360.000000	
21.657131	2560.000000	
21.677639	2520.000000	
21.698146	2649.000000	
21.718654	2674.000000	
21.739162	2802.000000	
21.759669	2890.000000	
21.780177	3092.000000	
21.800685	3216.000000	
21.821192	3536.000000	
21.841700	3696.000000	
21.862208	3967.000000	
21.882716	4018.000000	
21.903223	4242.000000	
21.923731	4296.000000	
21.944239	4559.000000	
21.964746	4634.000000	
21.985254	4904.000000	
22.005762	5071.000000	
22.026269	5194.000000	
22.046777	5396.000000	
22.067285	5843.000000	
22.087793	6195.000000	
22.108300	6516.000000	
22.128808	6968.000000	
22.149316	7475.000000	
22.169823	7792.000000	
22.190331	8208.000000	
22.210839	8499.000000	
22.231346	8307.000000	
22.251854	7940.000000	
22.272362	7032.000000	
22.292870	6021.000000	
22.313377	5148.000000	
22.333885	4308.000000	
22.354393	3587.000000	
22.374900	3105.000000	
22.395408	2940.000000	
22.415916	2753.000000	
22.436423	2620.000000	
22.456931	2598.000000	
22.477439	2564.000000	
22.497947	2633.000000	
22.518454	2671.000000	
22.538962	2692.000000	
22.559470	2706.000000	
22.579977	2815.000000	
22.600485	3034.000000	
22.620993	3285.000000	
22.641500	3391.000000	
22.662008	3717.000000	
22.682516	3842.000000	
22.703024	4201.000000	
22.723531	4559.000000	
22.744039	4695.000000	
22.764547	5032.000000	
22.785054	5305.000000	
22.805562	5582.000000	
22.826070	6036.000000	
22.846577	6461.000000	
22.867085	6768.000000	
22.887593	7206.000000	
22.908101	7739.000000	
22.928608	8090.000000	
22.949116	8507.000000	
22.969624	9187.000000	
22.990131	9480.000000	
23.010639	9864.000000	
23.031147	10000.000000	
23.051655	9454.000000	
23.072162	8506.000000	
23.092670	6982.000000	
23.113178	6077.000000	
23.133685	5147.000000	
23.154193	4172.000000	
23.174701	3734.000000	
23.195208	3518.000000	
23.215716	3341.000000	
23.236224	3226.000000	
23.256732	3261.000000	
23.277239	3371.000000	
23.297747	3320.000000	
23.318255	3446.000000	
23.338762	3537.000000	
23.359270	3607.000000	
23.379778	3758.000000	
23.400285	3903.000000	
23.420793	3966.000000	
23.441301	4156.000000	
23.461809	4347.000000	
23.482316	4542.000000	
23.502824	4653.000000	
23.523332	5025.000000	
23.543839	5352.000000	
23.564347	5656.000000	
23.584855	5832.000000	
23.605362	5621.000000	
23.625870	5189.000000	
23.646378	4707.000000	
23.666886	4275.000000	
23.687393	3836.000000	
23.707901	3395.000000	
23.728409	3234.000000	
23.748916	3311.000000	
23.769424	3309.000000	
23.789932	3347.000000	
23.810439	3372.000000	
23.830947	3452.000000	
23.851455	3685.000000	
23.871963	3818.000000	
23.892470	4008.000000	
23.912978	4231.000000	
23.933486	4429.000000	
23.953993	4497.000000	
23.974501	4859.000000	
23.995009	4974.000000	
24.015516	5041.000000	
24.036024	5150.000000	
24.056532	5069.000000	
24.077040	5221.000000	
24.097547	4989.000000	
24.118055	4748.000000	
24.138563	4780.000000	
24.159070	4630.000000	
24.179578	4663.000000	
24.200086	4703.000000	
24.220593	4678.000000	
24.241101	4843.000000	
24.261609	4815.000000	
24.282117	4949.000000	
24.302624	4875.000000	
24.323132	5070.000000	
24.343640	4866.000000	
24.364147	4527.000000	
24.384655	4216.000000	
24.405163	3884.000000	
24.425670	3481.000000	
24.446178	3115.000000	
24.466686	3021.000000	
24.487194	2902.000000	
24.507701	2723.000000	
24.528209	2712.000000	
24.548717	2577.000000	
24.569224	2612.000000	
24.589732	2610.000000	
24.610240	2638.000000	
24.630748	2728.000000	
24.651255	2695.000000	
24.671763	2778.000000	
24.692271	2839.000000	
24.712778	2818.000000	
24.733286	2841.000000	
24.753794	2977.000000	
24.774301	3070.000000	
24.794809	3079.000000	
24.815317	3180.000000	
24.835825	3248.000000	
24.856332	3330.000000	
24.876840	3286.000000	
24.897348	3434.000000	
24.917855	3561.000000	
24.938363	3620.000000	
24.958871	3677.000000	
24.979378	3735.000000	
24.999886	3784.000000	
25.020394	3833.000000	
25.040902	3888.000000	
25.061409	3897.000000	
25.081917	3930.000000	
25.102425	4012.000000	
25.122932	3939.000000	
25.143440	4003.000000	
25.163948	4077.000000	
25.184455	4027.000000	
25.204963	4076.000000	
25.225471	4166.000000	
25.245979	4331.000000	
25.266486	4491.000000	
25.286994	4475.000000	
25.307502	4619.000000	
25.328009	4979.000000	
25.348517	5162.000000	
25.369025	5505.000000	
25.389532	5631.000000	
25.410040	5901.000000	
25.430548	6139.000000	
25.451056	6488.000000	
25.471563	6963.000000	
25.492071	7114.000000	
25.512579	7334.000000	
25.533086	7623.000000	
25.553594	7927.000000	
25.574102	8402.000000	
25.594609	8427.000000	
25.615117	8348.000000	
25.635625	8416.000000	
25.656133	8361.000000	
25.676640	8214.000000	
25.697148	7887.000000	
25.717656	7839.000000	
25.738163	7347.000000	
25.758671	7081.000000	
25.779179	6800.000000	
25.799686	6427.000000	
25.820194	6184.000000	
25.840702	5767.000000	
25.861210	5727.000000	
25.881717	5460.000000	
25.902225	5317.000000	
25.922733	5154.000000	
25.943240	5080.000000	
25.963748	4923.000000	
25.984256	4803.000000	
26.004763	4592.000000	
26.025271	4305.000000	
26.045779	4038.000000	
26.066287	3944.000000	
26.086794	3763.000000	
26.107302	3546.000000	
26.127810	3447.000000	
26.148317	3313.000000	
26.168825	3130.000000	
26.189333	3109.000000	
26.209841	3044.000000	
26.230348	3102.000000	
26.250856	3141.000000	
26.271364	3075.000000	
26.291871	3019.000000	
26.312379	2974.000000	
26.332887	3050.000000	
26.353394	2991.000000	
26.373902	2916.000000	
26.394410	2945.000000	
26.414918	3103.000000	
26.435425	3031.000000	
26.455933	3062.000000	
26.476441	2940.000000	
26.496948	3058.000000	
26.517456	2946.000000	
26.537964	2928.000000	
26.558471	3061.000000	
26.578979	3053.000000	
26.599487	3005.000000	
26.619995	2975.000000	
26.640502	3165.000000	
26.661010	3117.000000	
26.681518	3109.000000	
26.702025	3169.000000	
26.722533	3314.000000	
26.743041	3309.000000	
26.763548	3417.000000	
26.784056	3443.000000	
26.804564	3706.000000	
26.825072	3770.000000	
26.845579	3825.000000	
26.866087	4089.000000	
26.886595	4328.000000	
26.907102	4511.000000	
26.927610	5031.000000	
26.948118	5357.000000	
26.968625	5802.000000	
26.989133	6289.000000	
27.009641	7223.000000	
27.030149	8040.000000	
27.050656	8937.000000	
27.071164	10062.000000	
27.091672	11427.000000	
27.112179	12654.000000	
27.132687	14157.000000	
27.153195	15629.000000	
27.173702	17419.000000	
27.194210	18310.000000	
27.214718	19709.000000	
27.235226	21471.000000	
27.255733	22923.000000	
27.276241	24603.000000	
27.296749	26074.000000	
27.317256	27635.000000	
27.337764	29358.000000	
27.358272	31216.000000	
27.378779	32479.000000	
27.399287	34465.000000	
27.419795	35609.000000	
27.440303	36605.000000	
27.460810	37160.000000	
27.481318	36868.000000	
27.501826	34367.000000	
27.522333	31198.000000	
27.542841	26885.000000	
27.563349	23376.000000	
27.583856	19821.000000	
27.604364	16661.000000	
27.624872	14148.000000	
27.645380	12701.000000	
27.665887	11914.000000	
27.686395	11352.000000	
27.706903	10815.000000	
27.727410	10555.000000	
27.747918	10486.000000	
27.768426	10346.000000	
27.788934	9648.000000	
27.809441	8780.000000	
27.829949	7773.000000	
27.850457	7025.000000	
27.870964	6245.000000	
27.891472	5346.000000	
27.911980	4839.000000	
27.932487	4659.000000	
27.952995	4340.000000	
27.973503	4203.000000	
27.994011	4176.000000	
28.014518	4191.000000	
28.035026	4113.000000	
28.055534	4154.000000	
28.076041	4089.000000	
28.096549	4226.000000	
28.117057	4220.000000	
28.137564	4308.000000	
28.158072	4445.000000	
28.178580	4300.000000	
28.199088	4446.000000	
28.219595	4537.000000	
28.240103	4690.000000	
28.260611	4725.000000	
28.281118	4825.000000	
28.301626	4897.000000	
28.322134	5007.000000	
28.342641	4843.000000	
28.363149	4817.000000	
28.383657	4651.000000	
28.404165	4433.000000	
28.424672	4287.000000	
28.445180	4035.000000	
28.465688	3948.000000	
28.486195	3759.000000	
28.506703	3597.000000	
28.527211	3457.000000	
28.547718	3320.000000	
28.568226	3190.000000	
28.588734	3029.000000	
28.609242	2891.000000	
28.629749	2839.000000	
28.650257	2719.000000	
28.670765	2728.000000	
28.691272	2628.000000	
28.711780	2475.000000	
28.732288	2552.000000	
28.752795	2568.000000	
28.773303	2488.000000	
28.793811	2451.000000	
28.814319	2471.000000	
28.834826	2373.000000	
28.855334	2416.000000	
28.875842	2526.000000	
28.896349	2500.000000	
28.916857	2276.000000	
28.937365	2482.000000	
28.957872	2500.000000	
28.978380	2362.000000	
28.998888	2386.000000	
29.019396	2458.000000	
29.039903	2377.000000	
29.060411	2402.000000	
29.080919	2477.000000	
29.101426	2383.000000	
29.121934	2390.000000	
29.142442	2553.000000	
29.162949	2468.000000	
29.183457	2452.000000	
29.203965	2373.000000	
29.224473	2459.000000	
29.244980	2473.000000	
29.265488	2503.000000	
29.285996	2609.000000	
29.306503	2557.000000	
29.327011	2612.000000	
29.347519	2598.000000	
29.368027	2664.000000	
29.388534	2658.000000	
29.409042	2609.000000	
29.429550	2804.000000	
29.450057	2828.000000	
29.470565	2846.000000	
29.491073	2742.000000	
29.511580	2926.000000	
29.532088	2870.000000	
29.552596	3000.000000	
29.573104	3109.000000	
29.593611	3121.000000	
29.614119	3198.000000	
29.634627	3291.000000	
29.655134	3529.000000	
29.675642	3473.000000	
29.696150	3637.000000	
29.716657	3821.000000	
29.737165	4009.000000	
29.757673	4076.000000	
29.778181	4210.000000	
29.798688	4352.000000	
29.819196	4603.000000	
29.839704	4685.000000	
29.860211	5049.000000	
29.880719	5157.000000	
29.901227	5339.000000	
29.921734	5688.000000	
29.942242	5737.000000	
29.962750	6060.000000	
29.983258	6298.000000	
30.003765	6434.000000	
30.024273	6583.000000	
30.044781	6626.000000	
30.065288	6591.000000	
30.085796	6549.000000	
30.106304	6318.000000	
30.126811	6132.000000	
30.147319	5897.000000	
30.167827	5463.000000	
30.188335	5103.000000	
30.208842	4709.000000	
30.229350	4341.000000	
30.249858	4011.000000	
30.270365	3939.000000	
30.290873	3556.000000	
30.311381	3537.000000	
30.331888	3317.000000	
30.352396	3161.000000	
30.372904	3169.000000	
30.393412	3066.000000	
30.413919	3001.000000	
30.434427	2981.000000	
30.454935	2958.000000	
30.475442	2869.000000	
30.495950	2769.000000	
30.516458	2818.000000	
30.536965	2753.000000	
30.557473	2809.000000	
30.577981	2727.000000	
30.598489	2673.000000	
30.618996	2680.000000	
30.639504	2639.000000	
30.660012	2620.000000	
30.680519	2489.000000	
30.701027	2493.000000	
30.721535	2395.000000	
30.742042	2393.000000	
30.762550	2371.000000	
30.783058	2272.000000	
30.803566	2297.000000	
30.824073	2270.000000	
30.844581	2210.000000	
30.865089	2198.000000	
30.885596	2152.000000	
30.906104	2211.000000	
30.926612	2284.000000	
30.947120	2216.000000	
30.967627	2070.000000	
30.988135	2056.000000	
31.008643	2200.000000	
31.029150	2103.000000	
31.049658	2042.000000	
31.070166	2166.000000	
31.090673	2088.000000	
31.111181	2109.000000	
31.131689	2265.000000	
31.152197	2284.000000	
31.172704	2222.000000	
31.193212	2199.000000	
31.213720	2397.000000	
31.234227	2503.000000	
31.254735	2562.000000	
31.275243	2677.000000	
31.295750	2790.000000	
31.316258	2913.000000	
31.336766	3112.000000	
31.357274	3240.000000	
31.377781	3231.000000	
31.398289	3467.000000	
31.418797	3562.000000	
31.439304	3632.000000	
31.459812	3721.000000	
31.480320	3945.000000	
31.500827	3992.000000	
31.521335	4233.000000	
31.541843	4371.000000	
31.562351	4381.000000	
31.582858	4549.000000	
31.603366	4750.000000	
31.623874	4890.000000	
31.644381	5045.000000	
31.664889	5026.000000	
31.685397	4654.000000	
31.705904	4262.000000	
31.726412	3926.000000	
31.746920	3735.000000	
31.767428	3443.000000	
31.787935	3166.000000	
31.808443	2981.000000	
31.828951	2804.000000	
31.849458	2757.000000	
31.869966	2840.000000	
31.890474	2841.000000	
31.910981	2888.000000	
31.931489	2942.000000	
31.951997	2887.000000	
31.972505	3049.000000	
31.993012	3084.000000	
32.013520	3302.000000	
32.034028	3194.000000	
32.054535	3223.000000	
32.075043	3258.000000	
32.095551	3502.000000	
32.116058	3386.000000	
32.136566	3410.000000	
32.157074	3373.000000	
32.177582	3293.000000	
32.198089	3513.000000	
32.218597	3393.000000	
32.239105	3408.000000	
32.259612	3465.000000	
32.280120	3369.000000	
32.300628	3416.000000	
32.321135	3483.000000	
32.341643	3450.000000	
32.362151	3453.000000	
32.382659	3389.000000	
32.403166	3354.000000	
32.423674	3430.000000	
32.444182	3423.000000	
32.464689	3557.000000	
32.485197	3600.000000	
32.505705	3579.000000	
32.526213	3625.000000	
32.546720	3693.000000	
32.567228	3852.000000	
32.587736	3915.000000	
32.608243	3939.000000	
32.628751	3885.000000	
32.649259	4195.000000	
32.669766	4305.000000	
32.690274	4488.000000	
32.710782	4537.000000	
32.731290	4730.000000	
32.751797	4994.000000	
32.772305	5273.000000	
32.792813	5399.000000	
32.813320	5472.000000	
32.833828	5336.000000	
32.854336	5432.000000	
32.874843	5451.000000	
32.895351	5625.000000	
32.915859	5533.000000	
32.936367	5699.000000	
32.956874	5735.000000	
32.977382	5593.000000	
32.997890	5844.000000	
33.018397	5906.000000	
33.038905	6150.000000	
33.059413	6021.000000	
33.079920	6180.000000	
33.100428	6118.000000	
33.120936	6006.000000	
33.141444	5839.000000	
33.161951	5594.000000	
33.182459	5526.000000	
33.202967	5335.000000	
33.223474	5047.000000	
33.243982	4930.000000	
33.264490	4775.000000	
33.284997	4611.000000	
33.305505	4547.000000	
33.326013	4401.000000	
33.346521	4479.000000	
33.367028	4417.000000	
33.387536	4283.000000	
33.408044	4328.000000	
33.428551	4202.000000	
33.449059	4293.000000	
33.469567	4280.000000	
33.490074	4232.000000	
33.510582	4262.000000	
33.531090	4165.000000	
33.551598	4161.000000	
33.572105	4067.000000	
33.592613	4006.000000	
33.613121	3772.000000	
33.633628	3764.000000	
33.654136	3478.000000	
33.674644	3327.000000	
33.695151	3190.000000	
33.715659	2978.000000	
33.736167	2893.000000	
33.756675	2718.000000	
33.777182	2724.000000	
33.797690	2631.000000	
33.818198	2589.000000	
33.838705	2536.000000	
33.859213	2456.000000	
33.879721	2562.000000	
33.900228	2487.000000	
33.920736	2487.000000	
33.941244	2464.000000	
33.961752	2468.000000	
33.982259	2634.000000	
34.002767	2653.000000	
34.023275	2608.000000	
34.043782	2668.000000	
34.064290	2655.000000	
34.084798	2670.000000	
34.105306	2667.000000	
34.125813	2623.000000	
34.146321	2611.000000	
34.166829	2567.000000	
34.187336	2508.000000	
34.207844	2505.000000	
34.228352	2458.000000	
34.248859	2415.000000	
34.269367	2353.000000	
34.289875	2230.000000	
34.310383	2260.000000	
34.330890	2071.000000	
34.351398	1966.000000	
34.371906	1998.000000	
34.392413	1997.000000	
34.412921	1992.000000	
34.433429	1968.000000	
34.453936	1909.000000	
34.474444	1882.000000	
34.494952	1916.000000	
34.515460	1921.000000	
34.535967	1801.000000	
34.556475	1931.000000	
34.576983	1781.000000	
34.597490	1782.000000	
34.617998	1808.000000	
34.638506	1900.000000	
34.659013	1784.000000	
34.679521	1863.000000	
34.700029	1845.000000	
34.720537	1907.000000	
34.741044	1864.000000	
34.761552	1884.000000	
34.782060	1929.000000	
34.802567	1943.000000	
34.823075	1966.000000	
34.843583	1939.000000	
34.864090	1983.000000	
34.884598	2007.000000	
34.905106	1991.000000	
34.925614	1962.000000	
34.946121	2042.000000	
34.966629	2053.000000	
34.987137	2079.000000	
35.007644	2077.000000	
35.028152	1975.000000	
35.048660	2105.000000	
35.069167	2122.000000	
35.089675	2048.000000	
35.110183	2103.000000	
35.130691	2028.000000	
35.151198	2011.000000	
35.171706	2042.000000	
35.192214	2004.000000	
35.212721	1917.000000	
35.233229	1904.000000	
35.253737	1907.000000	
35.274244	1992.000000	
35.294752	1960.000000	
35.315260	1815.000000	
35.335768	1925.000000	
35.356275	1934.000000	
35.376783	1837.000000	
35.397291	1859.000000	
35.417798	1853.000000	
35.438306	1926.000000	
35.458814	1899.000000	
35.479321	1928.000000	
35.499829	1970.000000	
35.520337	1974.000000	
35.540845	1947.000000	
35.561352	2020.000000	
35.581860	1930.000000	
35.602368	2036.000000	
35.622875	2170.000000	
35.643383	2135.000000	
35.663891	2056.000000	
35.684399	2088.000000	
35.704906	2122.000000	
35.725414	2171.000000	
35.745922	2136.000000	
35.766429	2124.000000	
35.786937	2004.000000	
35.807445	1987.000000	
35.827952	2056.000000	
35.848460	1876.000000	
35.868968	1892.000000	
35.889476	1858.000000	
35.909983	1928.000000	
35.930491	1795.000000	
35.950999	1758.000000	
35.971506	1744.000000	
35.992014	1730.000000	
36.012522	1734.000000	
36.033029	1658.000000	
36.053537	1662.000000	
36.074045	1625.000000	
36.094553	1668.000000	
36.115060	1741.000000	
36.135568	1696.000000	
36.156076	1708.000000	
36.176583	1719.000000	
36.197091	1637.000000	
36.217599	1654.000000	
36.238106	1785.000000	
36.258614	1740.000000	
36.279122	1760.000000	
36.299630	1741.000000	
36.320137	1673.000000	
36.340645	1746.000000	
36.361153	1776.000000	
36.381660	1729.000000	
36.402168	1744.000000	
36.422676	1755.000000	
36.443183	1838.000000	
36.463691	1868.000000	
36.484199	1803.000000	
36.504707	1762.000000	
36.525214	1919.000000	
36.545722	1878.000000	
36.566230	1956.000000	
36.586737	1998.000000	
36.607245	2024.000000	
36.627753	2037.000000	
36.648260	2048.000000	
36.668768	2041.000000	
36.689276	2175.000000	
36.709784	2209.000000	
36.730291	2148.000000	
36.750799	2234.000000	
36.771307	2243.000000	
36.791814	2241.000000	
36.812322	2279.000000	
36.832830	2305.000000	
36.853337	2272.000000	
36.873845	2256.000000	
36.894353	2268.000000	
36.914861	2173.000000	
36.935368	2154.000000	
36.955876	2148.000000	
36.976384	2155.000000	
36.996891	2139.000000	
37.017399	2033.000000	
37.037907	2081.000000	
37.058414	2076.000000	
37.078922	2111.000000	
37.099430	2122.000000	
37.119938	2112.000000	
37.140445	2130.000000	
37.160953	2172.000000	
37.181461	2192.000000	
37.201968	2322.000000	
37.222476	2254.000000	
37.242984	2299.000000	
37.263492	2344.000000	
37.283999	2424.000000	
37.304507	2351.000000	
37.325015	2397.000000	
37.345522	2421.000000	
37.366030	2466.000000	
37.386538	2370.000000	
37.407045	2343.000000	
37.427553	2160.000000	
37.448061	2165.000000	
37.468569	2114.000000	
37.489076	2012.000000	
37.509584	1965.000000	
37.530092	1916.000000	
37.550599	1807.000000	
37.571107	1843.000000	
37.591615	1760.000000	
37.612122	1787.000000	
37.632630	1750.000000	
37.653138	1725.000000	
37.673646	1737.000000	
37.694153	1825.000000	
37.714661	1859.000000	
37.735169	1836.000000	
37.755676	1902.000000	
37.776184	1845.000000	
37.796692	1867.000000	
37.817199	1856.000000	
37.837707	1841.000000	
37.858215	1879.000000	
37.878723	1842.000000	
37.899230	1843.000000	
37.919738	1776.000000	
37.940246	1874.000000	
37.960753	1838.000000	
37.981261	1872.000000	
38.001769	1888.000000	
38.022276	1939.000000	
38.042784	1961.000000	
38.063292	1902.000000	
38.083800	2001.000000	
38.104307	2038.000000	
38.124815	2087.000000	
38.145323	2084.000000	
38.165830	2179.000000	
38.186338	2104.000000	
38.206846	2149.000000	
38.227353	2213.000000	
38.247861	2298.000000	
38.268369	2266.000000	
38.288877	2264.000000	
38.309384	2186.000000	
38.329892	2166.000000	
38.350400	2129.000000	
38.370907	2081.000000	
38.391415	1967.000000	
38.411923	1959.000000	
38.432430	1940.000000	
38.452938	1847.000000	
38.473446	1861.000000	
38.493954	1840.000000	
38.514461	1759.000000	
38.534969	1673.000000	
38.555477	1650.000000	
38.575984	1703.000000	
38.596492	1612.000000	
38.617000	1588.000000	
38.637507	1712.000000	
38.658015	1670.000000	
38.678523	1603.000000	
38.699031	1605.000000	
38.719538	1663.000000	
38.740046	1622.000000	
38.760554	1686.000000	
38.781061	1675.000000	
38.801569	1712.000000	
38.822077	1749.000000	
38.842585	1751.000000	
38.863092	1773.000000	
38.883600	1845.000000	
38.904108	1900.000000	
38.924615	1856.000000	
38.945123	1901.000000	
38.965631	1871.000000	
38.986138	1916.000000	
39.006646	1976.000000	
39.027154	1974.000000	
39.047662	1998.000000	
39.068169	2064.000000	
39.088677	2168.000000	
39.109185	2176.000000	
39.129692	2214.000000	
39.150200	2123.000000	
39.170708	2259.000000	
39.191215	2233.000000	
39.211723	2277.000000	
39.232231	2295.000000	
39.252739	2339.000000	
39.273246	2355.000000	
39.293754	2344.000000	
39.314262	2442.000000	
39.334769	2518.000000	
39.355277	2428.000000	
39.375785	2503.000000	
39.396292	2473.000000	
39.416800	2634.000000	
39.437308	2564.000000	
39.457816	2713.000000	
39.478323	2586.000000	
39.498831	2504.000000	
39.519339	2466.000000	
39.539846	2448.000000	
39.560354	2315.000000	
39.580862	2172.000000	
39.601369	2153.000000	
39.621877	1998.000000	
39.642385	1915.000000	
39.662893	1798.000000	
39.683400	1784.000000	
39.703908	1751.000000	
39.724416	1694.000000	
39.744923	1717.000000	
39.765431	1662.000000	
39.785939	1736.000000	
39.806446	1628.000000	
39.826954	1572.000000	
39.847462	1669.000000	
39.867970	1649.000000	
39.888477	1659.000000	
39.908985	1623.000000	
39.929493	1718.000000	
39.950000	1675.000000	
39.970508	1731.000000	
39.991016	1686.000000	
40.011523	1801.000000	
40.032031	1871.000000	
40.052539	1710.000000	
40.073047	1864.000000	
40.093554	1901.000000	
40.114062	2051.000000	
40.134570	2104.000000	
40.155077	2092.000000	
40.175585	2106.000000	
40.196093	2205.000000	
40.216600	2211.000000	
40.237108	2314.000000	
40.257616	2421.000000	
40.278124	2502.000000	
40.298631	2516.000000	
40.319139	2533.000000	
40.339647	2562.000000	
40.360154	2665.000000	
40.380662	2682.000000	
40.401170	2634.000000	
40.421678	2696.000000	
40.442185	2649.000000	
40.462693	2630.000000	
40.483201	2684.000000	
40.503708	2590.000000	
40.524216	2545.000000	
40.544724	2472.000000	
40.565231	2363.000000	
40.585739	2339.000000	
40.606247	2313.000000	
40.626755	2330.000000	
40.647262	2178.000000	
40.667770	2239.000000	
40.688278	2317.000000	
40.708785	2192.000000	
40.729293	2185.000000	
40.749801	2159.000000	
40.770308	2198.000000	
40.790816	2094.000000	
40.811324	2194.000000	
40.831832	2240.000000	
40.852339	2183.000000	
40.872847	2274.000000	
40.893355	2170.000000	
40.913862	2172.000000	
40.934370	2120.000000	
40.954878	2141.000000	
40.975385	2159.000000	
40.995893	2218.000000	
41.016401	2174.000000	
41.036909	2182.000000	
41.057416	2184.000000	
41.077924	2096.000000	
41.098432	1965.000000	
41.118939	1961.000000	
41.139447	1924.000000	
41.159955	1856.000000	
41.180462	1842.000000	
41.200970	1878.000000	
41.221478	1914.000000	
41.241986	1785.000000	
41.262493	1796.000000	
41.283001	1853.000000	
41.303509	1885.000000	
41.324016	1852.000000	
41.344524	1921.000000	
41.365032	1904.000000	
41.385539	1944.000000	
41.406047	2034.000000	
41.426555	1993.000000	
41.447063	1918.000000	
41.467570	1938.000000	
41.488078	1954.000000	
41.508586	1921.000000	
41.529093	2011.000000	
41.549601	1992.000000	
41.570109	2064.000000	
41.590616	1938.000000	
41.611124	1992.000000	
41.631632	1933.000000	
41.652140	1944.000000	
41.672647	1830.000000	
41.693155	1755.000000	
41.713663	1810.000000	
41.734170	1673.000000	
41.754678	1661.000000	
41.775186	1667.000000	
41.795693	1556.000000	
41.816201	1574.000000	
41.836709	1552.000000	
41.857217	1446.000000	
41.877724	1525.000000	
41.898232	1465.000000	
41.918740	1453.000000	
41.939247	1549.000000	
41.959755	1496.000000	
41.980263	1430.000000	
42.000771	1487.000000	
42.021278	1378.000000	
42.041786	1440.000000	
42.062294	1357.000000	
42.082801	1428.000000	
42.103309	1539.000000	
42.123817	1492.000000	
42.144324	1460.000000	
42.164832	1426.000000	
42.185340	1410.000000	
42.205848	1367.000000	
42.226355	1526.000000	
42.246863	1506.000000	
42.267371	1430.000000	
42.287878	1437.000000	
42.308386	1546.000000	
42.328894	1471.000000	
42.349401	1484.000000	
42.369909	1466.000000	
42.390417	1447.000000	
42.410925	1478.000000	
42.431432	1443.000000	
42.451940	1484.000000	
42.472448	1429.000000	
42.492955	1395.000000	
42.513463	1528.000000	
42.533971	1464.000000	
42.554478	1448.000000	
42.574986	1502.000000	
42.595494	1470.000000	
42.616002	1361.000000	
42.636509	1457.000000	
42.657017	1433.000000	
42.677525	1471.000000	
42.698032	1387.000000	
42.718540	1404.000000	
42.739048	1415.000000	
42.759555	1418.000000	
42.780063	1462.000000	
42.800571	1406.000000	
42.821079	1541.000000	
42.841586	1413.000000	
42.862094	1503.000000	
42.882602	1483.000000	
42.903109	1492.000000	
42.923617	1497.000000	
42.944125	1506.000000	
42.964632	1571.000000	
42.985140	1480.000000	
43.005648	1489.000000	
43.026156	1519.000000	
43.046663	1464.000000	
43.067171	1439.000000	
43.087679	1446.000000	
43.108186	1389.000000	
43.128694	1417.000000	
43.149202	1348.000000	
43.169709	1334.000000	
43.190217	1339.000000	
43.210725	1305.000000	
43.231233	1277.000000	
43.251740	1358.000000	
43.272248	1261.000000	
43.292756	1340.000000	
43.313263	1398.000000	
43.333771	1398.000000	
43.354279	1307.000000	
43.374786	1295.000000	
43.395294	1323.000000	
43.415802	1353.000000	
43.436310	1296.000000	
43.456817	1383.000000	
43.477325	1366.000000	
43.497833	1420.000000	
43.518340	1367.000000	
43.538848	1449.000000	
43.559356	1344.000000	
43.579864	1343.000000	
43.600371	1366.000000	
43.620879	1409.000000	
43.641387	1436.000000	
43.661894	1430.000000	
43.682402	1440.000000	
43.702910	1384.000000	
43.723417	1317.000000	
43.743925	1413.000000	
43.764433	1372.000000	
43.784941	1286.000000	
43.805448	1348.000000	
43.825956	1389.000000	
43.846464	1429.000000	
43.866971	1368.000000	
43.887479	1340.000000	
43.907987	1283.000000	
43.928494	1340.000000	
43.949002	1361.000000	
43.969510	1407.000000	
43.990018	1366.000000	
44.010525	1388.000000	
44.031033	1348.000000	
44.051541	1400.000000	
44.072048	1397.000000	
44.092556	1442.000000	
44.113064	1389.000000	
44.133571	1426.000000	
44.154079	1458.000000	
44.174587	1448.000000	
44.195095	1420.000000	
44.215602	1396.000000	
44.236110	1454.000000	
44.256618	1439.000000	
44.277125	1455.000000	
44.297633	1494.000000	
44.318141	1519.000000	
44.338648	1595.000000	
44.359156	1517.000000	
44.379664	1569.000000	
44.400172	1535.000000	
44.420679	1470.000000	
44.441187	1614.000000	
44.461695	1567.000000	
44.482202	1567.000000	
44.502710	1515.000000	
44.523218	1522.000000	
44.543725	1562.000000	
44.564233	1514.000000	
44.584741	1530.000000	
44.605249	1543.000000	
44.625756	1582.000000	
44.646264	1541.000000	
44.666772	1547.000000	
44.687279	1562.000000	
44.707787	1512.000000	
44.728295	1568.000000	
44.748802	1575.000000	
44.769310	1556.000000	
44.789818	1551.000000	
44.810326	1499.000000	
44.830833	1506.000000	
44.851341	1496.000000	
44.871849	1563.000000	
44.892356	1523.000000	
44.912864	1565.000000	
44.933372	1571.000000	
44.953879	1627.000000	
44.974387	1649.000000	
44.994895	1659.000000	
45.015403	1774.000000	
45.035910	1884.000000	
45.056418	1876.000000	
45.076926	1814.000000	
45.097433	1841.000000	
45.117941	1962.000000	
45.138449	2045.000000	
45.158957	2014.000000	
45.179464	2107.000000	
45.199972	2058.000000	
45.220480	2170.000000	
45.240987	2283.000000	
45.261495	2131.000000	
45.282003	2229.000000	
45.302510	2285.000000	
45.323018	2299.000000	
45.343526	2367.000000	
45.364034	2269.000000	
45.384541	2359.000000	
45.405049	2225.000000	
45.425557	2108.000000	
45.446064	2028.000000	
45.466572	1975.000000	
45.487080	1909.000000	
45.507587	1784.000000	
45.528095	1667.000000	
45.548603	1610.000000	
45.569111	1495.000000	
45.589618	1446.000000	
45.610126	1456.000000	
45.630634	1362.000000	
45.651141	1359.000000	
45.671649	1352.000000	
45.692157	1336.000000	
45.712664	1320.000000	
45.733172	1420.000000	
45.753680	1331.000000	
45.774188	1358.000000	
45.794695	1339.000000	
45.815203	1351.000000	
45.835711	1383.000000	
45.856218	1425.000000	
45.876726	1462.000000	
45.897234	1434.000000	
45.917741	1359.000000	
45.938249	1535.000000	
45.958757	1450.000000	
45.979265	1517.000000	
45.999772	1628.000000	
46.020280	1526.000000	
46.040788	1604.000000	
46.061295	1575.000000	
46.081803	1611.000000	
46.102311	1623.000000	
46.122818	1708.000000	
46.143326	1662.000000	
46.163834	1551.000000	
46.184342	1681.000000	
46.204849	1633.000000	
46.225357	1714.000000	
46.245865	1682.000000	
46.266372	1619.000000	
46.286880	1698.000000	
46.307388	1688.000000	
46.327895	1739.000000	
46.348403	1654.000000	
46.368911	1629.000000	
46.389419	1637.000000	
46.409926	1725.000000	
46.430434	1629.000000	
46.450942	1547.000000	
46.471449	1523.000000	
46.491957	1492.000000	
46.512465	1477.000000	
46.532972	1454.000000	
46.553480	1431.000000	
46.573988	1462.000000	
46.594496	1444.000000	
46.615003	1496.000000	
46.635511	1491.000000	
46.656019	1502.000000	
46.676526	1530.000000	
46.697034	1447.000000	
46.717542	1443.000000	
46.738050	1426.000000	
46.758557	1417.000000	
46.779065	1433.000000	
46.799573	1428.000000	
46.820080	1388.000000	
46.840588	1443.000000	
46.861096	1478.000000	
46.881603	1421.000000	
46.902111	1372.000000	
46.922619	1390.000000	
46.943127	1366.000000	
46.963634	1376.000000	
46.984142	1346.000000	
47.004650	1382.000000	
47.025157	1340.000000	
47.045665	1346.000000	
47.066173	1307.000000	
47.086680	1240.000000	
47.107188	1208.000000	
47.127696	1245.000000	
47.148204	1292.000000	
47.168711	1307.000000	
47.189219	1267.000000	
47.209727	1280.000000	
47.230234	1269.000000	
47.250742	1299.000000	
47.271250	1337.000000	
47.291757	1344.000000	
47.312265	1291.000000	
47.332773	1408.000000	
47.353281	1290.000000	
47.373788	1378.000000	
47.394296	1376.000000	
47.414804	1409.000000	
47.435311	1383.000000	
47.455819	1398.000000	
47.476327	1522.000000	
47.496834	1481.000000	
47.517342	1462.000000	
47.537850	1504.000000	
47.558358	1565.000000	
47.578865	1512.000000	
47.599373	1558.000000	
47.619881	1446.000000	
47.640388	1572.000000	
47.660896	1496.000000	
47.681404	1573.000000	
47.701911	1533.000000	
47.722419	1623.000000	
47.742927	1470.000000	
47.763435	1534.000000	
47.783942	1458.000000	
47.804450	1489.000000	
47.824958	1474.000000	
47.845465	1418.000000	
47.865973	1465.000000	
47.886481	1471.000000	
47.906988	1423.000000	
47.927496	1429.000000	
47.948004	1407.000000	
47.968512	1425.000000	
47.989019	1399.000000	
48.009527	1471.000000	
48.030035	1404.000000	
48.050542	1378.000000	
48.071050	1415.000000	
48.091558	1352.000000	
48.112065	1398.000000	
48.132573	1355.000000	
48.153081	1403.000000	
48.173589	1368.000000	
48.194096	1356.000000	
48.214604	1377.000000	
48.235112	1389.000000	
48.255619	1356.000000	
48.276127	1309.000000	
48.296635	1345.000000	
48.317143	1380.000000	
48.337650	1348.000000	
48.358158	1445.000000	
48.378666	1411.000000	
48.399173	1433.000000	
48.419681	1465.000000	
48.440189	1378.000000	
48.460696	1433.000000	
48.481204	1510.000000	
48.501712	1467.000000	
48.522220	1516.000000	
48.542727	1473.000000	
48.563235	1496.000000	
48.583743	1586.000000	
48.604250	1539.000000	
48.624758	1571.000000	
48.645266	1613.000000	
48.665773	1626.000000	
48.686281	1702.000000	
48.706789	1585.000000	
48.727297	1598.000000	
48.747804	1692.000000	
48.768312	1659.000000	
48.788820	1566.000000	
48.809327	1616.000000	
48.829835	1553.000000	
48.850343	1616.000000	
48.870850	1544.000000	
48.891358	1536.000000	
48.911866	1589.000000	
48.932374	1552.000000	
48.952881	1509.000000	
48.973389	1506.000000	
48.993897	1482.000000	
49.014404	1537.000000	
49.034912	1515.000000	
49.055420	1584.000000	
49.075927	1473.000000	
49.096435	1584.000000	
49.116943	1492.000000	
49.137451	1535.000000	
49.157958	1552.000000	
49.178466	1479.000000	
49.198974	1548.000000	
49.219481	1569.000000	
49.239989	1634.000000	
49.260497	1596.000000	
49.281004	1597.000000	
49.301512	1621.000000	
49.322020	1677.000000	
49.342528	1556.000000	
49.363035	1749.000000	
49.383543	1745.000000	
49.404051	1749.000000	
49.424558	1883.000000	
49.445066	1887.000000	
49.465574	1842.000000	
49.486081	2017.000000	
49.506589	2021.000000	
49.527097	2093.000000	
49.547605	2102.000000	
49.568112	2250.000000	
49.588620	2251.000000	
49.609128	2317.000000	
49.629635	2443.000000	
49.650143	2436.000000	
49.670651	2440.000000	
49.691158	2591.000000	
49.711666	2629.000000	
49.732174	2515.000000	
49.752682	2606.000000	
49.773189	2488.000000	
49.793697	2474.000000	
49.814205	2464.000000	
49.834712	2338.000000	
49.855220	2390.000000	
49.875728	2378.000000	
49.896236	2268.000000	
49.916743	2078.000000	
49.937251	2064.000000	
49.957759	1985.000000	
49.978266	1942.000000	
49.998774	1834.000000	
50.019282	1775.000000	
50.039789	1813.000000	
50.060297	1775.000000	
50.080805	1718.000000	
50.101313	1658.000000	
50.121820	1663.000000	
50.142328	1536.000000	
50.162836	1557.000000	
50.183343	1569.000000	
50.203851	1470.000000	
50.224359	1409.000000	
50.244866	1408.000000	
50.265374	1421.000000	
50.285882	1417.000000	
50.306390	1399.000000	
50.326897	1322.000000	
50.347405	1336.000000	
50.367913	1339.000000	
50.388420	1374.000000	
50.408928	1339.000000	
50.429436	1293.000000	
50.449943	1310.000000	
50.470451	1305.000000	
50.490959	1274.000000	
50.511467	1347.000000	
50.531974	1195.000000	
50.552482	1282.000000	
50.572990	1291.000000	
50.593497	1354.000000	
50.614005	1253.000000	
50.634513	1264.000000	
50.655020	1331.000000	
50.675528	1311.000000	
50.696036	1288.000000	
50.716544	1316.000000	
50.737051	1324.000000	
50.757559	1300.000000	
50.778067	1340.000000	
50.798574	1351.000000	
50.819082	1353.000000	
50.839590	1435.000000	
50.860097	1423.000000	
50.880605	1450.000000	
50.901113	1396.000000	
50.921621	1408.000000	
50.942128	1485.000000	
50.962636	1406.000000	
50.983144	1504.000000	
51.003651	1477.000000	
51.024159	1581.000000	
51.044667	1544.000000	
51.065174	1493.000000	
51.085682	1528.000000	
51.106190	1410.000000	
51.126698	1615.000000	
51.147205	1583.000000	
51.167713	1599.000000	
51.188221	1523.000000	
51.208728	1577.000000	
51.229236	1625.000000	
51.249744	1586.000000	
51.270251	1623.000000	
51.290759	1569.000000	
51.311267	1597.000000	
51.331775	1554.000000	
51.352282	1533.000000	
51.372790	1559.000000	
51.393298	1625.000000	
51.413805	1534.000000	
51.434313	1604.000000	
51.454821	1547.000000	
51.475329	1503.000000	
51.495836	1576.000000	
51.516344	1528.000000	
51.536852	1550.000000	
51.557359	1515.000000	
51.577867	1542.000000	
51.598375	1486.000000	
51.618882	1520.000000	
51.639390	1482.000000	
51.659898	1499.000000	
51.680406	1464.000000	
51.700913	1440.000000	
51.721421	1489.000000	
51.741929	1436.000000	
51.762436	1506.000000	
51.782944	1406.000000	
51.803452	1485.000000	
51.823959	1492.000000	
51.844467	1545.000000	
51.864975	1378.000000	
51.885483	1412.000000	
51.905990	1404.000000	
51.926498	1461.000000	
51.947006	1494.000000	
51.967513	1483.000000	
51.988021	1445.000000	
52.008529	1450.000000	
52.029036	1461.000000	
52.049544	1456.000000	
52.070052	1366.000000	
52.090560	1409.000000	
52.111067	1306.000000	
52.131575	1316.000000	
52.152083	1369.000000	
52.172590	1329.000000	
52.193098	1356.000000	
52.213606	1287.000000	
52.234113	1261.000000	
52.254621	1260.000000	
52.275129	1185.000000	
52.295637	1255.000000	
52.316144	1258.000000	
52.336652	1226.000000	
52.357160	1224.000000	
52.377667	1226.000000	
52.398175	1254.000000	
52.418683	1206.000000	
52.439190	1247.000000	
52.459698	1164.000000	
52.480206	1236.000000	
52.500714	1274.000000	
52.521221	1245.000000	
52.541729	1257.000000	
52.562237	1234.000000	
52.582744	1282.000000	
52.603252	1180.000000	
52.623760	1222.000000	
52.644267	1313.000000	
52.664775	1258.000000	
52.685283	1244.000000	
52.705791	1222.000000	
52.726298	1189.000000	
52.746806	1202.000000	
52.767314	1217.000000	
52.787821	1217.000000	
52.808329	1255.000000	
52.828837	1201.000000	
52.849344	1245.000000	
52.869852	1248.000000	
52.890360	1284.000000	
52.910868	1292.000000	
52.931375	1259.000000	
52.951883	1279.000000	
52.972391	1278.000000	
52.992898	1241.000000	
53.013406	1264.000000	
53.033914	1222.000000	
53.054422	1275.000000	
53.074929	1214.000000	
53.095437	1294.000000	
53.115945	1190.000000	
53.136452	1218.000000	
53.156960	1181.000000	
53.177468	1207.000000	
53.197975	1223.000000	
53.218483	1157.000000	
53.238991	1211.000000	
53.259499	1197.000000	
53.280006	1248.000000	
53.300514	1229.000000	
53.321022	1245.000000	
53.341529	1162.000000	
53.362037	1176.000000	
53.382545	1242.000000	
53.403052	1247.000000	
53.423560	1232.000000	
53.444068	1227.000000	
53.464576	1282.000000	
53.485083	1242.000000	
53.505591	1262.000000	
53.526099	1205.000000	
53.546606	1245.000000	
53.567114	1254.000000	
53.587622	1192.000000	
53.608129	1316.000000	
53.628637	1269.000000	
53.649145	1261.000000	
53.669653	1327.000000	
53.690160	1315.000000	
53.710668	1341.000000	
53.731176	1342.000000	
53.751683	1347.000000	
53.772191	1372.000000	
53.792699	1380.000000	
53.813206	1329.000000	
53.833714	1287.000000	
53.854222	1331.000000	
53.874730	1416.000000	
53.895237	1359.000000	
53.915745	1350.000000	
53.936253	1382.000000	
53.956760	1364.000000	
53.977268	1353.000000	
53.997776	1338.000000	
54.018283	1399.000000	
54.038791	1384.000000	
54.059299	1363.000000	
54.079807	1394.000000	
54.100314	1326.000000	
54.120822	1356.000000	
54.141330	1353.000000	
54.161837	1399.000000	
54.182345	1380.000000	
54.202853	1394.000000	
54.223360	1418.000000	
54.243868	1393.000000	
54.264376	1319.000000	
54.284884	1385.000000	
54.305391	1394.000000	
54.325899	1408.000000	
54.346407	1432.000000	
54.366914	1402.000000	
54.387422	1405.000000	
54.407930	1358.000000	
54.428437	1411.000000	
54.448945	1376.000000	
54.469453	1420.000000	
54.489961	1377.000000	
54.510468	1319.000000	
54.530976	1372.000000	
54.551484	1381.000000	
54.571991	1276.000000	
54.592499	1287.000000	
54.613007	1246.000000	
54.633515	1302.000000	
54.654022	1277.000000	
54.674530	1249.000000	
54.695038	1253.000000	
54.715545	1226.000000	
54.736053	1181.000000	
54.756561	1187.000000	
54.777068	1230.000000	
54.797576	1229.000000	
54.818084	1266.000000	
54.838592	1277.000000	
54.859099	1193.000000	
54.879607	1294.000000	
54.900115	1138.000000	
54.920622	1214.000000	
54.941130	1256.000000	
54.961638	1291.000000	
54.982145	1223.000000	
55.002653	1244.000000	
55.023161	1253.000000	
55.043669	1291.000000	
55.064176	1243.000000	
55.084684	1262.000000	
55.105192	1161.000000	
55.125699	1270.000000	
55.146207	1309.000000	
55.166715	1325.000000	
55.187222	1253.000000	
55.207730	1228.000000	
55.228238	1261.000000	
55.248746	1269.000000	
55.269253	1281.000000	
55.289761	1399.000000	
55.310269	1303.000000	
55.330776	1360.000000	
55.351284	1316.000000	
55.371792	1376.000000	
55.392299	1329.000000	
55.412807	1319.000000	
55.433315	1401.000000	
55.453823	1403.000000	
55.474330	1415.000000	
55.494838	1466.000000	
55.515346	1431.000000	
55.535853	1408.000000	
55.556361	1487.000000	
55.576869	1437.000000	
55.597376	1474.000000	
55.617884	1361.000000	
55.638392	1449.000000	
55.658900	1446.000000	
55.679407	1364.000000	
55.699915	1318.000000	
55.720423	1407.000000	
55.740930	1327.000000	
55.761438	1317.000000	
55.781946	1288.000000	
55.802453	1291.000000	
55.822961	1271.000000	
55.843469	1209.000000	
55.863977	1307.000000	
55.884484	1173.000000	
55.904992	1243.000000	
55.925500	1208.000000	
55.946007	1219.000000	
55.966515	1249.000000	
55.987023	1248.000000	
56.007530	1308.000000	
56.028038	1229.000000	
56.048546	1260.000000	
56.069054	1252.000000	
56.089561	1314.000000	
56.110069	1363.000000	
56.130577	1331.000000	
56.151084	1328.000000	
56.171592	1381.000000	
56.192100	1383.000000	
56.212608	1410.000000	
56.233115	1368.000000	
56.253623	1461.000000	
56.274131	1408.000000	
56.294638	1516.000000	
56.315146	1470.000000	
56.335654	1546.000000	
56.356161	1630.000000	
56.376669	1597.000000	
56.397177	1682.000000	
56.417685	1526.000000	
56.438192	1619.000000	
56.458700	1570.000000	
56.479208	1544.000000	
56.499715	1530.000000	
56.520223	1606.000000	
56.540731	1596.000000	
56.561238	1496.000000	
56.581746	1558.000000	
56.602254	1586.000000	
56.622762	1539.000000	
56.643269	1500.000000	
56.663777	1502.000000	
56.684285	1478.000000	
56.704792	1525.000000	
56.725300	1520.000000	
56.745808	1525.000000	
56.766315	1500.000000	
56.786823	1410.000000	
56.807331	1404.000000	
56.827839	1415.000000	
56.848346	1401.000000	
56.868854	1320.000000	
56.889362	1314.000000	
56.909869	1239.000000	
56.930377	1225.000000	
56.950885	1227.000000	
56.971392	1154.000000	
56.991900	1178.000000	
57.012408	1141.000000	
57.032916	1090.000000	
57.053423	1157.000000	
57.073931	1126.000000	
57.094439	1132.000000	
57.114946	1099.000000	
57.135454	1092.000000	
57.155962	1109.000000	
57.176469	1150.000000	
57.196977	1086.000000	
57.217485	1083.000000	
57.237993	1103.000000	
57.258500	1116.000000	
57.279008	1127.000000	
57.299516	1024.000000	
57.320023	1106.000000	
57.340531	1091.000000	
57.361039	1101.000000	
57.381546	1184.000000	
57.402054	1110.000000	
57.422562	1161.000000	
57.443070	1127.000000	
57.463577	1097.000000	
57.484085	1163.000000	
57.504593	1099.000000	
57.525100	1110.000000	
57.545608	1102.000000	
57.566116	1131.000000	
57.586623	1161.000000	
57.607131	1154.000000	
57.627639	1150.000000	
57.648147	1152.000000	
57.668654	1179.000000	
57.689162	1150.000000	
57.709670	1214.000000	
57.730177	1138.000000	
57.750685	1172.000000	
57.771193	1140.000000	
57.791701	1162.000000	
57.812208	1141.000000	
57.832716	1169.000000	
57.853224	1171.000000	
57.873731	1189.000000	
57.894239	1218.000000	
57.914747	1144.000000	
57.935254	1224.000000	
57.955762	1254.000000	
57.976270	1191.000000	
57.996778	1210.000000	
58.017285	1235.000000	
58.037793	1306.000000	
58.058301	1268.000000	
58.078808	1265.000000	
58.099316	1277.000000	
58.119824	1225.000000	
58.140331	1220.000000	
58.160839	1202.000000	
58.181347	1193.000000	
58.201855	1217.000000	
58.222362	1143.000000	
58.242870	1152.000000	
58.263378	1138.000000	
58.283885	1166.000000	
58.304393	1174.000000	
58.324901	1091.000000	
58.345408	1188.000000	
58.365916	1114.000000	
58.386424	1158.000000	
58.406932	1103.000000	
58.427439	1144.000000	
58.447947	1152.000000	
58.468455	1211.000000	
58.488962	1128.000000	
58.509470	1161.000000	
58.529978	1218.000000	
58.550485	1244.000000	
58.570993	1220.000000	
58.591501	1254.000000	
58.612009	1213.000000	
58.632516	1186.000000	
58.653024	1160.000000	
58.673532	1213.000000	
58.694039	1220.000000	
58.714547	1186.000000	
58.735055	1220.000000	
58.755562	1215.000000	
58.776070	1284.000000	
58.796578	1263.000000	
58.817086	1163.000000	
58.837593	1213.000000	
58.858101	1229.000000	
58.878609	1169.000000	
58.899116	1142.000000	
58.919624	1130.000000	
58.940132	1175.000000	
58.960639	1169.000000	
58.981147	1170.000000	
59.001655	1126.000000	
59.022163	1057.000000	
59.042670	1100.000000	
59.063178	1093.000000	
59.083686	1028.000000	
59.104193	1097.000000	
59.124701	1039.000000	
59.145209	1060.000000	
59.165716	1062.000000	
59.186224	1007.000000	
59.206732	1039.000000	
59.227240	991.000000	
59.247747	1044.000000	
59.268255	1024.000000	
59.288763	1031.000000	
59.309270	1030.000000	
59.329778	1095.000000	
59.350286	1066.000000	
59.370794	1054.000000	
59.391301	994.000000	
59.411809	988.000000	
59.432317	995.000000	
59.452824	1071.000000	
59.473332	1021.000000	
59.493840	974.000000	
59.514347	984.000000	
59.534855	1025.000000	
59.555363	957.000000	
59.575871	1012.000000	
59.596378	1000.000000	
59.616886	987.000000	
59.637394	1000.000000	
59.657901	1005.000000	
59.678409	1068.000000	
59.698917	994.000000	
59.719424	1018.000000	
59.739932	1000.000000	
59.760440	1049.000000	
59.780948	1032.000000	
59.801455	1004.000000	
59.821963	995.000000	
59.842471	1040.000000	
59.862978	1020.000000	
59.883486	1002.000000	
59.903994	1036.000000	
59.924501	1057.000000	
59.945009	1043.000000	
59.965517	1016.000000	
59.986025	1028.000000	
60.006532	1074.000000	
