;content of C:\2023\IFUNAM\Dr-IVAN\Ivan-1-hora\Fluoresceina.raw - (Diffrac Plus V4 file)
_FILEVERSION = 3
_SAMPLE = Fluoresceina
_+SAMPLE
_USER = Lab Manager
_GONIOMETER_CODE = 21
_STAGE_CODE = 7
; Goniometer : D8 theta/theta, stage : Chi drive
_SAMPLE_CHANGER_CODE = 0
_ATTACHMENTS_CODE = 0
_GONIOMETER_RADIUS = 280
_SOLLER_SLITS = 2
_FIXED_DETSLIT = 6
_MONOCHROMATOR = 0
; Incident beam monochromator : None
_BETA_FILTER = N
_ANALYZER_CODE = 0
; Received beam analyzer : None
_DATEMEASURED = 25-May-2023 13:38:17
_RUNTIME = 3670.882
_WL_UNIT = A
_WL1 = 1.540600
_WL2 = 1.544390
_WL3 = 1.392220
_WLRATIO = 0.500000
_ANODE = Cu
_V4_INF_USER = Lab Manager
_V4_INF_SAMPLEID = Fluoresceina
_V4_INF_CREATOR = BrmlToV4Converter
_V4_INF_CREATOR_VERSION = 7.3.1.0

; Data for range 1
_DRIVE = COUPLED
_STEPTIME = 288
_STEPSIZE = 0.024609
_STEPMODE = C
_START = 3.000000
_THETA = 1.500000
_2THETA = 3.000000
_PHI = 247.617188
_DIVERGENCE = 0.379996
_DETECTORSLIT = out
_TIMESTARTED = 0
_ROTATION_SPEED = 15
_KV = 40
_MA = 35
_RANGE_WL = 1.541800
_3DPLANE = 0
_V4_PSD2THETA = 9999.000000
_V4_PSDCHANNEL1 = 0
_V4_PSDAPERTURE = 2.953109
_V4_PSDTYPE = 5
_V4_PSDFIXED = 0
_V4_COUNTERS_MASK = 1
_V4_DRIVES_MASK = 0
_V4_ENCODERS_MASK = 0
_2THETACOUNTS = 1
; 2THETA	Cnt2_D1	
3.000000	1490.000000	
3.024609	1521.000000	
3.049218	1435.000000	
3.073828	1434.000000	
3.098437	1400.000000	
3.123046	1313.000000	
3.147655	1330.000000	
3.172265	1296.000000	
3.196874	1227.000000	
3.221483	1261.000000	
3.246092	1083.000000	
3.270702	1195.000000	
3.295311	1142.000000	
3.319920	1081.000000	
3.344529	1117.000000	
3.369139	1123.000000	
3.393748	1043.000000	
3.418357	1085.000000	
3.442966	1054.000000	
3.467576	1043.000000	
3.492185	1010.000000	
3.516794	941.000000	
3.541403	1021.000000	
3.566013	967.000000	
3.590622	1022.000000	
3.615231	950.000000	
3.639840	878.000000	
3.664450	987.000000	
3.689059	901.000000	
3.713668	873.000000	
3.738277	865.000000	
3.762886	848.000000	
3.787496	918.000000	
3.812105	834.000000	
3.836714	806.000000	
3.861323	802.000000	
3.885933	792.000000	
3.910542	814.000000	
3.935151	808.000000	
3.959760	841.000000	
3.984370	776.000000	
4.008979	778.000000	
4.033588	757.000000	
4.058197	731.000000	
4.082807	684.000000	
4.107416	755.000000	
4.132025	637.000000	
4.156634	736.000000	
4.181244	762.000000	
4.205853	682.000000	
4.230462	679.000000	
4.255071	684.000000	
4.279681	658.000000	
4.304290	622.000000	
4.328899	680.000000	
4.353508	675.000000	
4.378118	673.000000	
4.402727	670.000000	
4.427336	630.000000	
4.451945	647.000000	
4.476554	618.000000	
4.501164	678.000000	
4.525773	609.000000	
4.550382	653.000000	
4.574991	568.000000	
4.599601	625.000000	
4.624210	565.000000	
4.648819	648.000000	
4.673428	615.000000	
4.698038	531.000000	
4.722647	603.000000	
4.747256	632.000000	
4.771865	675.000000	
4.796475	651.000000	
4.821084	556.000000	
4.845693	546.000000	
4.870302	544.000000	
4.894912	512.000000	
4.919521	522.000000	
4.944130	537.000000	
4.968739	549.000000	
4.993349	520.000000	
5.017958	507.000000	
5.042567	531.000000	
5.067176	513.000000	
5.091786	503.000000	
5.116395	496.000000	
5.141004	535.000000	
5.165613	507.000000	
5.190222	518.000000	
5.214832	466.000000	
5.239441	474.000000	
5.264050	500.000000	
5.288659	463.000000	
5.313269	509.000000	
5.337878	475.000000	
5.362487	477.000000	
5.387096	453.000000	
5.411706	453.000000	
5.436315	510.000000	
5.460924	455.000000	
5.485533	449.000000	
5.510143	459.000000	
5.534752	465.000000	
5.559361	447.000000	
5.583970	448.000000	
5.608580	456.000000	
5.633189	466.000000	
5.657798	443.000000	
5.682407	464.000000	
5.707017	488.000000	
5.731626	414.000000	
5.756235	457.000000	
5.780844	433.000000	
5.805454	447.000000	
5.830063	459.000000	
5.854672	437.000000	
5.879281	441.000000	
5.903891	432.000000	
5.928500	450.000000	
5.953109	474.000000	
5.977718	379.000000	
6.002327	447.000000	
6.026937	421.000000	
6.051546	411.000000	
6.076155	420.000000	
6.100764	416.000000	
6.125374	439.000000	
6.149983	435.000000	
6.174592	447.000000	
6.199201	443.000000	
6.223811	402.000000	
6.248420	388.000000	
6.273029	385.000000	
6.297638	456.000000	
6.322248	449.000000	
6.346857	401.000000	
6.371466	394.000000	
6.396075	432.000000	
6.420685	443.000000	
6.445294	415.000000	
6.469903	392.000000	
6.494512	428.000000	
6.519122	413.000000	
6.543731	436.000000	
6.568340	406.000000	
6.592949	396.000000	
6.617559	385.000000	
6.642168	413.000000	
6.666777	402.000000	
6.691386	425.000000	
6.715995	399.000000	
6.740605	437.000000	
6.765214	444.000000	
6.789823	448.000000	
6.814432	432.000000	
6.839042	429.000000	
6.863651	433.000000	
6.888260	442.000000	
6.912869	449.000000	
6.937479	413.000000	
6.962088	396.000000	
6.986697	430.000000	
7.011306	399.000000	
7.035916	447.000000	
7.060525	421.000000	
7.085134	394.000000	
7.109743	444.000000	
7.134353	433.000000	
7.158962	432.000000	
7.183571	403.000000	
7.208180	387.000000	
7.232790	388.000000	
7.257399	411.000000	
7.282008	421.000000	
7.306617	418.000000	
7.331227	378.000000	
7.355836	390.000000	
7.380445	464.000000	
7.405054	447.000000	
7.429663	455.000000	
7.454273	423.000000	
7.478882	452.000000	
7.503491	466.000000	
7.528100	433.000000	
7.552710	425.000000	
7.577319	436.000000	
7.601928	460.000000	
7.626537	460.000000	
7.651147	470.000000	
7.675756	482.000000	
7.700365	473.000000	
7.724974	493.000000	
7.749584	469.000000	
7.774193	447.000000	
7.798802	468.000000	
7.823411	473.000000	
7.848021	512.000000	
7.872630	442.000000	
7.897239	521.000000	
7.921848	464.000000	
7.946458	479.000000	
7.971067	492.000000	
7.995676	453.000000	
8.020285	487.000000	
8.044895	509.000000	
8.069504	477.000000	
8.094113	451.000000	
8.118722	496.000000	
8.143331	481.000000	
8.167941	486.000000	
8.192550	494.000000	
8.217159	495.000000	
8.241768	467.000000	
8.266378	484.000000	
8.290987	507.000000	
8.315596	516.000000	
8.340205	501.000000	
8.364815	495.000000	
8.389424	493.000000	
8.414033	541.000000	
8.438642	551.000000	
8.463252	496.000000	
8.487861	541.000000	
8.512470	545.000000	
8.537079	523.000000	
8.561689	562.000000	
8.586298	528.000000	
8.610907	524.000000	
8.635516	535.000000	
8.660126	580.000000	
8.684735	586.000000	
8.709344	593.000000	
8.733953	587.000000	
8.758563	524.000000	
8.783172	524.000000	
8.807781	577.000000	
8.832390	545.000000	
8.856999	620.000000	
8.881609	538.000000	
8.906218	596.000000	
8.930827	586.000000	
8.955436	597.000000	
8.980046	582.000000	
9.004655	612.000000	
9.029264	589.000000	
9.053873	576.000000	
9.078483	608.000000	
9.103092	613.000000	
9.127701	579.000000	
9.152310	599.000000	
9.176920	573.000000	
9.201529	635.000000	
9.226138	601.000000	
9.250747	634.000000	
9.275357	566.000000	
9.299966	634.000000	
9.324575	628.000000	
9.349184	600.000000	
9.373794	590.000000	
9.398403	610.000000	
9.423012	613.000000	
9.447621	609.000000	
9.472231	627.000000	
9.496840	648.000000	
9.521449	615.000000	
9.546058	635.000000	
9.570667	615.000000	
9.595277	636.000000	
9.619886	634.000000	
9.644495	627.000000	
9.669104	636.000000	
9.693714	657.000000	
9.718323	641.000000	
9.742932	659.000000	
9.767541	634.000000	
9.792151	713.000000	
9.816760	677.000000	
9.841369	648.000000	
9.865978	674.000000	
9.890588	661.000000	
9.915197	683.000000	
9.939806	675.000000	
9.964415	673.000000	
9.989025	654.000000	
10.013634	678.000000	
10.038243	670.000000	
10.062852	639.000000	
10.087462	738.000000	
10.112071	717.000000	
10.136680	676.000000	
10.161289	680.000000	
10.185899	697.000000	
10.210508	741.000000	
10.235117	719.000000	
10.259726	682.000000	
10.284336	718.000000	
10.308945	654.000000	
10.333554	731.000000	
10.358163	726.000000	
10.382772	758.000000	
10.407382	746.000000	
10.431991	729.000000	
10.456600	842.000000	
10.481209	788.000000	
10.505819	859.000000	
10.530428	895.000000	
10.555037	896.000000	
10.579646	957.000000	
10.604256	1015.000000	
10.628865	1100.000000	
10.653474	1132.000000	
10.678083	1292.000000	
10.702693	1471.000000	
10.727302	1778.000000	
10.751911	2167.000000	
10.776520	2974.000000	
10.801130	4192.000000	
10.825739	6063.000000	
10.850348	8313.000000	
10.874957	10533.000000	
10.899567	11081.000000	
10.924176	9974.000000	
10.948785	8109.000000	
10.973394	6214.000000	
10.998004	4382.000000	
11.022613	3307.000000	
11.047222	2414.000000	
11.071831	1741.000000	
11.096440	1433.000000	
11.121050	1195.000000	
11.145659	1109.000000	
11.170268	974.000000	
11.194877	1009.000000	
11.219487	954.000000	
11.244096	915.000000	
11.268705	902.000000	
11.293314	847.000000	
11.317924	840.000000	
11.342533	822.000000	
11.367142	858.000000	
11.391751	826.000000	
11.416361	801.000000	
11.440970	829.000000	
11.465579	854.000000	
11.490188	870.000000	
11.514798	878.000000	
11.539407	916.000000	
11.564016	833.000000	
11.588625	915.000000	
11.613235	847.000000	
11.637844	1002.000000	
11.662453	1024.000000	
11.687062	1118.000000	
11.711672	1097.000000	
11.736281	1153.000000	
11.760890	1182.000000	
11.785499	1288.000000	
11.810108	1407.000000	
11.834718	1529.000000	
11.859327	1812.000000	
11.883936	2202.000000	
11.908545	2923.000000	
11.933155	4117.000000	
11.957764	6016.000000	
11.982373	8909.000000	
12.006982	13470.000000	
12.031592	17673.000000	
12.056201	19715.000000	
12.080810	18332.000000	
12.105419	15530.000000	
12.130029	11490.000000	
12.154638	8469.000000	
12.179247	6189.000000	
12.203856	4591.000000	
12.228466	3288.000000	
12.253075	2623.000000	
12.277684	1938.000000	
12.302293	1711.000000	
12.326903	1604.000000	
12.351512	1373.000000	
12.376121	1297.000000	
12.400730	1162.000000	
12.425340	1161.000000	
12.449949	1148.000000	
12.474558	1139.000000	
12.499167	1076.000000	
12.523776	1044.000000	
12.548386	1046.000000	
12.572995	980.000000	
12.597604	1036.000000	
12.622213	988.000000	
12.646823	935.000000	
12.671432	934.000000	
12.696041	937.000000	
12.720650	929.000000	
12.745260	967.000000	
12.769869	977.000000	
12.794478	947.000000	
12.819087	949.000000	
12.843697	926.000000	
12.868306	947.000000	
12.892915	971.000000	
12.917524	958.000000	
12.942134	896.000000	
12.966743	925.000000	
12.991352	911.000000	
13.015961	933.000000	
13.040571	1046.000000	
13.065180	1020.000000	
13.089789	1026.000000	
13.114398	1023.000000	
13.139008	1141.000000	
13.163617	1116.000000	
13.188226	1126.000000	
13.212835	1103.000000	
13.237444	1186.000000	
13.262054	1222.000000	
13.286663	1278.000000	
13.311272	1284.000000	
13.335881	1451.000000	
13.360491	1482.000000	
13.385100	1704.000000	
13.409709	1974.000000	
13.434318	2344.000000	
13.458928	2876.000000	
13.483537	3742.000000	
13.508146	5075.000000	
13.532755	6844.000000	
13.557365	8622.000000	
13.581974	10067.000000	
13.606583	10479.000000	
13.631192	9712.000000	
13.655802	8211.000000	
13.680411	6732.000000	
13.705020	5484.000000	
13.729629	5041.000000	
13.754239	4904.000000	
13.778848	5439.000000	
13.803457	6229.000000	
13.828066	6541.000000	
13.852676	6224.000000	
13.877285	5268.000000	
13.901894	4162.000000	
13.926503	3226.000000	
13.951112	2553.000000	
13.975722	2003.000000	
14.000331	1634.000000	
14.024940	1469.000000	
14.049549	1236.000000	
14.074159	1153.000000	
14.098768	1094.000000	
14.123377	1050.000000	
14.147986	1009.000000	
14.172596	1017.000000	
14.197205	963.000000	
14.221814	998.000000	
14.246423	942.000000	
14.271033	935.000000	
14.295642	889.000000	
14.320251	947.000000	
14.344860	847.000000	
14.369470	837.000000	
14.394079	928.000000	
14.418688	884.000000	
14.443297	864.000000	
14.467907	859.000000	
14.492516	860.000000	
14.517125	825.000000	
14.541734	859.000000	
14.566344	865.000000	
14.590953	877.000000	
14.615562	846.000000	
14.640171	819.000000	
14.664780	783.000000	
14.689390	832.000000	
14.713999	798.000000	
14.738608	807.000000	
14.763217	821.000000	
14.787827	832.000000	
14.812436	830.000000	
14.837045	817.000000	
14.861654	816.000000	
14.886264	827.000000	
14.910873	771.000000	
14.935482	793.000000	
14.960091	788.000000	
14.984701	746.000000	
15.009310	725.000000	
15.033919	805.000000	
15.058528	786.000000	
15.083138	775.000000	
15.107747	816.000000	
15.132356	803.000000	
15.156965	827.000000	
15.181575	758.000000	
15.206184	791.000000	
15.230793	797.000000	
15.255402	789.000000	
15.280012	778.000000	
15.304621	794.000000	
15.329230	819.000000	
15.353839	787.000000	
15.378449	796.000000	
15.403058	786.000000	
15.427667	763.000000	
15.452276	736.000000	
15.476885	756.000000	
15.501495	787.000000	
15.526104	778.000000	
15.550713	773.000000	
15.575322	767.000000	
15.599932	789.000000	
15.624541	715.000000	
15.649150	739.000000	
15.673759	776.000000	
15.698369	751.000000	
15.722978	767.000000	
15.747587	751.000000	
15.772196	763.000000	
15.796806	749.000000	
15.821415	763.000000	
15.846024	785.000000	
15.870633	719.000000	
15.895243	742.000000	
15.919852	727.000000	
15.944461	754.000000	
15.969070	713.000000	
15.993680	683.000000	
16.018289	742.000000	
16.042898	697.000000	
16.067507	775.000000	
16.092117	706.000000	
16.116726	753.000000	
16.141335	702.000000	
16.165944	762.000000	
16.190553	754.000000	
16.215163	738.000000	
16.239772	709.000000	
16.264381	732.000000	
16.288990	745.000000	
16.313600	803.000000	
16.338209	775.000000	
16.362818	809.000000	
16.387427	798.000000	
16.412037	839.000000	
16.436646	864.000000	
16.461255	879.000000	
16.485864	862.000000	
16.510474	888.000000	
16.535083	889.000000	
16.559692	906.000000	
16.584301	928.000000	
16.608911	911.000000	
16.633520	961.000000	
16.658129	1003.000000	
16.682738	1049.000000	
16.707348	1139.000000	
16.731957	1256.000000	
16.756566	1346.000000	
16.781175	1509.000000	
16.805785	2002.000000	
16.830394	2715.000000	
16.855003	4265.000000	
16.879612	6957.000000	
16.904221	10925.000000	
16.928831	14958.000000	
16.953440	16105.000000	
16.978049	15068.000000	
17.002658	12322.000000	
17.027268	9394.000000	
17.051877	6851.000000	
17.076486	4968.000000	
17.101095	3621.000000	
17.125705	2621.000000	
17.150314	2091.000000	
17.174923	1676.000000	
17.199532	1370.000000	
17.224142	1175.000000	
17.248751	1146.000000	
17.273360	1048.000000	
17.297969	970.000000	
17.322579	937.000000	
17.347188	917.000000	
17.371797	903.000000	
17.396406	871.000000	
17.421016	856.000000	
17.445625	855.000000	
17.470234	834.000000	
17.494843	847.000000	
17.519453	875.000000	
17.544062	812.000000	
17.568671	809.000000	
17.593280	795.000000	
17.617889	813.000000	
17.642499	812.000000	
17.667108	748.000000	
17.691717	768.000000	
17.716326	800.000000	
17.740936	779.000000	
17.765545	814.000000	
17.790154	778.000000	
17.814763	808.000000	
17.839373	802.000000	
17.863982	870.000000	
17.888591	842.000000	
17.913200	830.000000	
17.937810	910.000000	
17.962419	894.000000	
17.987028	861.000000	
18.011637	980.000000	
18.036247	941.000000	
18.060856	967.000000	
18.085465	1120.000000	
18.110074	1256.000000	
18.134684	1377.000000	
18.159293	1429.000000	
18.183902	1384.000000	
18.208511	1479.000000	
18.233121	1535.000000	
18.257730	1656.000000	
18.282339	1924.000000	
18.306948	2435.000000	
18.331557	3036.000000	
18.356167	3767.000000	
18.380776	4204.000000	
18.405385	4175.000000	
18.429994	3883.000000	
18.454604	3231.000000	
18.479213	2736.000000	
18.503822	2093.000000	
18.528431	1819.000000	
18.553041	1584.000000	
18.577650	1332.000000	
18.602259	1235.000000	
18.626868	1157.000000	
18.651478	1088.000000	
18.676087	1032.000000	
18.700696	1033.000000	
18.725305	1026.000000	
18.749915	1068.000000	
18.774524	1028.000000	
18.799133	1044.000000	
18.823742	1129.000000	
18.848352	1314.000000	
18.872961	1450.000000	
18.897570	1619.000000	
18.922179	2234.000000	
18.946789	2865.000000	
18.971398	3654.000000	
18.996007	4243.000000	
19.020616	4933.000000	
19.045225	5431.000000	
19.069835	5577.000000	
19.094444	5350.000000	
19.119053	4789.000000	
19.143662	3827.000000	
19.168272	3218.000000	
19.192881	2716.000000	
19.217490	2096.000000	
19.242099	1775.000000	
19.266709	1481.000000	
19.291318	1292.000000	
19.315927	1177.000000	
19.340536	1087.000000	
19.365146	1030.000000	
19.389755	1003.000000	
19.414364	889.000000	
19.438973	924.000000	
19.463583	922.000000	
19.488192	868.000000	
19.512801	849.000000	
19.537410	808.000000	
19.562020	877.000000	
19.586629	825.000000	
19.611238	798.000000	
19.635847	845.000000	
19.660457	873.000000	
19.685066	813.000000	
19.709675	782.000000	
19.734284	837.000000	
19.758894	769.000000	
19.783503	802.000000	
19.808112	795.000000	
19.832721	762.000000	
19.857330	779.000000	
19.881940	851.000000	
19.906549	824.000000	
19.931158	865.000000	
19.955767	848.000000	
19.980377	914.000000	
20.004986	953.000000	
20.029595	994.000000	
20.054204	1186.000000	
20.078814	1337.000000	
20.103423	1636.000000	
20.128032	2002.000000	
20.152641	2378.000000	
20.177251	2733.000000	
20.201860	2646.000000	
20.226469	2687.000000	
20.251078	2523.000000	
20.275688	2184.000000	
20.300297	1960.000000	
20.324906	1665.000000	
20.349515	1441.000000	
20.374125	1252.000000	
20.398734	1127.000000	
20.423343	1021.000000	
20.447952	935.000000	
20.472562	849.000000	
20.497171	890.000000	
20.521780	838.000000	
20.546389	790.000000	
20.570998	802.000000	
20.595608	771.000000	
20.620217	795.000000	
20.644826	763.000000	
20.669435	792.000000	
20.694045	751.000000	
20.718654	731.000000	
20.743263	731.000000	
20.767872	766.000000	
20.792482	754.000000	
20.817091	695.000000	
20.841700	747.000000	
20.866309	717.000000	
20.890919	723.000000	
20.915528	729.000000	
20.940137	709.000000	
20.964746	750.000000	
20.989356	676.000000	
21.013965	757.000000	
21.038574	751.000000	
21.063183	748.000000	
21.087793	732.000000	
21.112402	745.000000	
21.137011	728.000000	
21.161620	740.000000	
21.186230	713.000000	
21.210839	738.000000	
21.235448	718.000000	
21.260057	726.000000	
21.284666	755.000000	
21.309276	716.000000	
21.333885	733.000000	
21.358494	820.000000	
21.383103	757.000000	
21.407713	740.000000	
21.432322	709.000000	
21.456931	749.000000	
21.481540	722.000000	
21.506150	734.000000	
21.530759	752.000000	
21.555368	739.000000	
21.579977	800.000000	
21.604587	795.000000	
21.629196	812.000000	
21.653805	801.000000	
21.678414	784.000000	
21.703024	786.000000	
21.727633	861.000000	
21.752242	901.000000	
21.776851	1041.000000	
21.801461	1156.000000	
21.826070	1248.000000	
21.850679	1419.000000	
21.875288	1338.000000	
21.899898	1288.000000	
21.924507	1231.000000	
21.949116	1341.000000	
21.973725	1343.000000	
21.998334	1531.000000	
22.022944	1710.000000	
22.047553	1921.000000	
22.072162	1966.000000	
22.096771	2003.000000	
22.121381	1982.000000	
22.145990	1842.000000	
22.170599	1602.000000	
22.195208	1392.000000	
22.219818	1240.000000	
22.244427	1139.000000	
22.269036	1008.000000	
22.293645	983.000000	
22.318255	883.000000	
22.342864	898.000000	
22.367473	807.000000	
22.392082	739.000000	
22.416692	772.000000	
22.441301	738.000000	
22.465910	733.000000	
22.490519	700.000000	
22.515129	736.000000	
22.539738	751.000000	
22.564347	740.000000	
22.588956	788.000000	
22.613566	740.000000	
22.638175	718.000000	
22.662784	849.000000	
22.687393	755.000000	
22.712002	766.000000	
22.736612	838.000000	
22.761221	756.000000	
22.785830	750.000000	
22.810439	832.000000	
22.835049	801.000000	
22.859658	810.000000	
22.884267	814.000000	
22.908876	803.000000	
22.933486	785.000000	
22.958095	785.000000	
22.982704	804.000000	
23.007313	803.000000	
23.031923	832.000000	
23.056532	810.000000	
23.081141	851.000000	
23.105750	844.000000	
23.130360	843.000000	
23.154969	957.000000	
23.179578	919.000000	
23.204187	992.000000	
23.228797	1163.000000	
23.253406	1335.000000	
23.278015	1529.000000	
23.302624	1840.000000	
23.327234	2374.000000	
23.351843	3000.000000	
23.376452	3862.000000	
23.401061	4588.000000	
23.425670	4852.000000	
23.450280	4878.000000	
23.474889	4357.000000	
23.499498	3888.000000	
23.524107	3239.000000	
23.548717	2583.000000	
23.573326	2030.000000	
23.597935	1873.000000	
23.622544	1709.000000	
23.647154	1597.000000	
23.671763	1542.000000	
23.696372	1615.000000	
23.720981	1504.000000	
23.745591	1397.000000	
23.770200	1266.000000	
23.794809	1204.000000	
23.819418	1070.000000	
23.844028	1003.000000	
23.868637	926.000000	
23.893246	839.000000	
23.917855	856.000000	
23.942465	859.000000	
23.967074	872.000000	
23.991683	826.000000	
24.016292	786.000000	
24.040902	797.000000	
24.065511	787.000000	
24.090120	777.000000	
24.114729	790.000000	
24.139339	765.000000	
24.163948	757.000000	
24.188557	742.000000	
24.213166	730.000000	
24.237775	699.000000	
24.262385	746.000000	
24.286994	787.000000	
24.311603	773.000000	
24.336212	746.000000	
24.360822	776.000000	
24.385431	710.000000	
24.410040	672.000000	
24.434649	775.000000	
24.459259	681.000000	
24.483868	767.000000	
24.508477	749.000000	
24.533086	689.000000	
24.557696	744.000000	
24.582305	772.000000	
24.606914	707.000000	
24.631523	684.000000	
24.656133	738.000000	
24.680742	737.000000	
24.705351	705.000000	
24.729960	719.000000	
24.754570	748.000000	
24.779179	721.000000	
24.803788	714.000000	
24.828397	750.000000	
24.853007	748.000000	
24.877616	766.000000	
24.902225	752.000000	
24.926834	771.000000	
24.951443	755.000000	
24.976053	900.000000	
25.000662	986.000000	
25.025271	997.000000	
25.049880	1018.000000	
25.074490	976.000000	
25.099099	974.000000	
25.123708	868.000000	
25.148317	862.000000	
25.172927	860.000000	
25.197536	824.000000	
25.222145	843.000000	
25.246754	792.000000	
25.271364	786.000000	
25.295973	819.000000	
25.320582	775.000000	
25.345191	768.000000	
25.369801	773.000000	
25.394410	822.000000	
25.419019	771.000000	
25.443628	726.000000	
25.468238	757.000000	
25.492847	765.000000	
25.517456	775.000000	
25.542065	712.000000	
25.566675	721.000000	
25.591284	771.000000	
25.615893	790.000000	
25.640502	844.000000	
25.665111	841.000000	
25.689721	841.000000	
25.714330	880.000000	
25.738939	869.000000	
25.763548	898.000000	
25.788158	930.000000	
25.812767	856.000000	
25.837376	920.000000	
25.861985	917.000000	
25.886595	979.000000	
25.911204	874.000000	
25.935813	908.000000	
25.960422	881.000000	
25.985032	994.000000	
26.009641	920.000000	
26.034250	999.000000	
26.058859	947.000000	
26.083469	972.000000	
26.108078	1099.000000	
26.132687	1010.000000	
26.157296	1037.000000	
26.181906	1075.000000	
26.206515	1060.000000	
26.231124	1167.000000	
26.255733	1228.000000	
26.280343	1293.000000	
26.304952	1310.000000	
26.329561	1403.000000	
26.354170	1616.000000	
26.378779	1799.000000	
26.403389	1913.000000	
26.427998	2185.000000	
26.452607	2480.000000	
26.477216	2924.000000	
26.501826	3711.000000	
26.526435	4881.000000	
26.551044	6997.000000	
26.575653	10317.000000	
26.600263	14829.000000	
26.624872	18477.000000	
26.649481	19579.000000	
26.674090	19306.000000	
26.698700	17566.000000	
26.723309	14864.000000	
26.747918	11497.000000	
26.772527	8879.000000	
26.797137	6463.000000	
26.821746	4981.000000	
26.846355	3718.000000	
26.870964	2888.000000	
26.895574	2362.000000	
26.920183	2072.000000	
26.944792	1876.000000	
26.969401	1680.000000	
26.994011	1635.000000	
27.018620	1662.000000	
27.043229	1657.000000	
27.067838	1659.000000	
27.092447	1549.000000	
27.117057	1563.000000	
27.141666	1576.000000	
27.166275	1620.000000	
27.190884	1607.000000	
27.215494	1559.000000	
27.240103	1617.000000	
27.264712	1571.000000	
27.289321	1489.000000	
27.313931	1472.000000	
27.338540	1421.000000	
27.363149	1332.000000	
27.387758	1323.000000	
27.412368	1193.000000	
27.436977	1199.000000	
27.461586	1253.000000	
27.486195	1219.000000	
27.510805	1274.000000	
27.535414	1349.000000	
27.560023	1388.000000	
27.584632	1417.000000	
27.609242	1481.000000	
27.633851	1769.000000	
27.658460	2097.000000	
27.683069	2584.000000	
27.707679	2812.000000	
27.732288	3274.000000	
27.756897	3420.000000	
27.781506	3634.000000	
27.806115	3909.000000	
27.830725	4338.000000	
27.855334	5048.000000	
27.879943	6302.000000	
27.904552	8240.000000	
27.929162	11227.000000	
27.953771	13811.000000	
27.978380	15450.000000	
28.002989	15484.000000	
28.027599	14364.000000	
28.052208	12558.000000	
28.076817	10586.000000	
28.101426	8254.000000	
28.126036	6199.000000	
28.150645	4706.000000	
28.175254	3584.000000	
28.199863	2763.000000	
28.224473	2312.000000	
28.249082	1818.000000	
28.273691	1626.000000	
28.298300	1457.000000	
28.322910	1270.000000	
28.347519	1239.000000	
28.372128	1161.000000	
28.396737	1193.000000	
28.421347	997.000000	
28.445956	1054.000000	
28.470565	1017.000000	
28.495174	971.000000	
28.519783	905.000000	
28.544393	953.000000	
28.569002	906.000000	
28.593611	910.000000	
28.618220	880.000000	
28.642830	823.000000	
28.667439	854.000000	
28.692048	849.000000	
28.716657	834.000000	
28.741267	860.000000	
28.765876	790.000000	
28.790485	860.000000	
28.815094	837.000000	
28.839704	816.000000	
28.864313	791.000000	
28.888922	800.000000	
28.913531	822.000000	
28.938141	783.000000	
28.962750	840.000000	
28.987359	772.000000	
29.011968	786.000000	
29.036578	743.000000	
29.061187	763.000000	
29.085796	771.000000	
29.110405	759.000000	
29.135015	754.000000	
29.159624	728.000000	
29.184233	740.000000	
29.208842	743.000000	
29.233452	784.000000	
29.258061	803.000000	
29.282670	714.000000	
29.307279	767.000000	
29.331888	738.000000	
29.356498	769.000000	
29.381107	746.000000	
29.405716	742.000000	
29.430325	737.000000	
29.454935	742.000000	
29.479544	777.000000	
29.504153	718.000000	
29.528762	725.000000	
29.553372	737.000000	
29.577981	744.000000	
29.602590	722.000000	
29.627199	714.000000	
29.651809	736.000000	
29.676418	778.000000	
29.701027	739.000000	
29.725636	754.000000	
29.750246	835.000000	
29.774855	827.000000	
29.799464	818.000000	
29.824073	821.000000	
29.848683	834.000000	
29.873292	814.000000	
29.897901	841.000000	
29.922510	830.000000	
29.947120	821.000000	
29.971729	817.000000	
29.996338	790.000000	
30.020947	830.000000	
30.045556	881.000000	
30.070166	922.000000	
30.094775	992.000000	
30.119384	1155.000000	
30.143993	1348.000000	
30.168603	1417.000000	
30.193212	1431.000000	
30.217821	1452.000000	
30.242430	1404.000000	
30.267040	1465.000000	
30.291649	1326.000000	
30.316258	1416.000000	
30.340867	1283.000000	
30.365477	1361.000000	
30.390086	1213.000000	
30.414695	1091.000000	
30.439304	1036.000000	
30.463914	965.000000	
30.488523	888.000000	
30.513132	820.000000	
30.537741	798.000000	
30.562351	770.000000	
30.586960	793.000000	
30.611569	796.000000	
30.636178	759.000000	
30.660788	768.000000	
30.685397	825.000000	
30.710006	852.000000	
30.734615	924.000000	
30.759224	988.000000	
30.783834	942.000000	
30.808443	912.000000	
30.833052	927.000000	
30.857661	804.000000	
30.882271	763.000000	
30.906880	825.000000	
30.931489	705.000000	
30.956098	710.000000	
30.980708	734.000000	
31.005317	719.000000	
31.029926	681.000000	
31.054535	712.000000	
31.079145	653.000000	
31.103754	689.000000	
31.128363	711.000000	
31.152972	689.000000	
31.177582	685.000000	
31.202191	736.000000	
31.226800	642.000000	
31.251409	658.000000	
31.276019	665.000000	
31.300628	681.000000	
31.325237	710.000000	
31.349846	654.000000	
31.374456	711.000000	
31.399065	688.000000	
31.423674	717.000000	
31.448283	737.000000	
31.472892	765.000000	
31.497502	802.000000	
31.522111	937.000000	
31.546720	885.000000	
31.571329	1037.000000	
31.595939	1122.000000	
31.620548	1265.000000	
31.645157	1433.000000	
31.669766	1549.000000	
31.694376	1675.000000	
31.718985	1638.000000	
31.743594	1624.000000	
31.768203	1502.000000	
31.792813	1288.000000	
31.817422	1178.000000	
31.842031	992.000000	
31.866640	964.000000	
31.891250	829.000000	
31.915859	868.000000	
31.940468	909.000000	
31.965077	874.000000	
31.989687	868.000000	
32.014296	838.000000	
32.038905	919.000000	
32.063514	932.000000	
32.088124	917.000000	
32.112733	968.000000	
32.137342	1042.000000	
32.161951	1116.000000	
32.186560	1316.000000	
32.211170	1516.000000	
32.235779	1531.000000	
32.260388	1727.000000	
32.284997	1741.000000	
32.309607	1668.000000	
32.334216	1587.000000	
32.358825	1399.000000	
32.383434	1296.000000	
32.408044	1100.000000	
32.432653	956.000000	
32.457262	868.000000	
32.481871	837.000000	
32.506481	717.000000	
32.531090	746.000000	
32.555699	696.000000	
32.580308	685.000000	
32.604918	634.000000	
32.629527	667.000000	
32.654136	668.000000	
32.678745	674.000000	
32.703355	709.000000	
32.727964	684.000000	
32.752573	670.000000	
32.777182	657.000000	
32.801792	690.000000	
32.826401	646.000000	
32.851010	704.000000	
32.875619	660.000000	
32.900228	633.000000	
32.924838	607.000000	
32.949447	628.000000	
32.974056	641.000000	
32.998665	638.000000	
33.023275	583.000000	
33.047884	611.000000	
33.072493	594.000000	
33.097102	650.000000	
33.121712	611.000000	
33.146321	625.000000	
33.170930	597.000000	
33.195539	623.000000	
33.220149	612.000000	
33.244758	576.000000	
33.269367	611.000000	
33.293976	655.000000	
33.318586	702.000000	
33.343195	710.000000	
33.367804	709.000000	
33.392413	753.000000	
33.417023	716.000000	
33.441632	721.000000	
33.466241	704.000000	
33.490850	654.000000	
33.515460	637.000000	
33.540069	643.000000	
33.564678	625.000000	
33.589287	630.000000	
33.613897	629.000000	
33.638506	638.000000	
33.663115	660.000000	
33.687724	678.000000	
33.712333	726.000000	
33.736943	712.000000	
33.761552	705.000000	
33.786161	765.000000	
33.810770	784.000000	
33.835380	775.000000	
33.859989	832.000000	
33.884598	863.000000	
33.909207	836.000000	
33.933817	923.000000	
33.958426	956.000000	
33.983035	1055.000000	
34.007644	1085.000000	
34.032254	1214.000000	
34.056863	1180.000000	
34.081472	1156.000000	
34.106081	1155.000000	
34.130691	1111.000000	
34.155300	961.000000	
34.179909	896.000000	
34.204518	810.000000	
34.229128	726.000000	
34.253737	732.000000	
34.278346	674.000000	
34.302955	635.000000	
34.327565	618.000000	
34.352174	590.000000	
34.376783	620.000000	
34.401392	546.000000	
34.426001	601.000000	
34.450611	601.000000	
34.475220	597.000000	
34.499829	558.000000	
34.524438	556.000000	
34.549048	592.000000	
34.573657	546.000000	
34.598266	550.000000	
34.622875	577.000000	
34.647485	547.000000	
34.672094	544.000000	
34.696703	575.000000	
34.721312	622.000000	
34.745922	577.000000	
34.770531	582.000000	
34.795140	617.000000	
34.819749	520.000000	
34.844359	556.000000	
34.868968	587.000000	
34.893577	566.000000	
34.918186	585.000000	
34.942796	599.000000	
34.967405	609.000000	
34.992014	599.000000	
35.016623	656.000000	
35.041233	682.000000	
35.065842	718.000000	
35.090451	748.000000	
35.115060	799.000000	
35.139669	759.000000	
35.164279	765.000000	
35.188888	852.000000	
35.213497	808.000000	
35.238106	821.000000	
35.262716	822.000000	
35.287325	825.000000	
35.311934	789.000000	
35.336543	793.000000	
35.361153	786.000000	
35.385762	723.000000	
35.410371	701.000000	
35.434980	678.000000	
35.459590	656.000000	
35.484199	672.000000	
35.508808	621.000000	
35.533417	619.000000	
35.558027	642.000000	
35.582636	592.000000	
35.607245	647.000000	
35.631854	626.000000	
35.656464	615.000000	
35.681073	632.000000	
35.705682	575.000000	
35.730291	633.000000	
35.754901	661.000000	
35.779510	738.000000	
35.804119	792.000000	
35.828728	957.000000	
35.853337	1150.000000	
35.877947	1283.000000	
35.902556	1281.000000	
35.927165	1300.000000	
35.951774	1185.000000	
35.976384	1172.000000	
36.000993	995.000000	
36.025602	933.000000	
36.050211	879.000000	
36.074821	780.000000	
36.099430	700.000000	
36.124039	706.000000	
36.148648	698.000000	
36.173258	671.000000	
36.197867	619.000000	
36.222476	664.000000	
36.247085	623.000000	
36.271695	648.000000	
36.296304	612.000000	
36.320913	597.000000	
36.345522	612.000000	
36.370132	607.000000	
36.394741	603.000000	
36.419350	661.000000	
36.443959	675.000000	
36.468569	717.000000	
36.493178	676.000000	
36.517787	733.000000	
36.542396	754.000000	
36.567005	761.000000	
36.591615	808.000000	
36.616224	740.000000	
36.640833	799.000000	
36.665442	854.000000	
36.690052	818.000000	
36.714661	765.000000	
36.739270	823.000000	
36.763879	789.000000	
36.788489	829.000000	
36.813098	891.000000	
36.837707	837.000000	
36.862316	885.000000	
36.886926	803.000000	
36.911535	844.000000	
36.936144	818.000000	
36.960753	748.000000	
36.985363	746.000000	
37.009972	765.000000	
37.034581	747.000000	
37.059190	784.000000	
37.083800	759.000000	
37.108409	755.000000	
37.133018	794.000000	
37.157627	872.000000	
37.182237	898.000000	
37.206846	855.000000	
37.231455	814.000000	
37.256064	788.000000	
37.280673	785.000000	
37.305283	771.000000	
37.329892	722.000000	
37.354501	635.000000	
37.379110	649.000000	
37.403720	606.000000	
37.428329	582.000000	
37.452938	555.000000	
37.477547	641.000000	
37.502157	615.000000	
37.526766	576.000000	
37.551375	602.000000	
37.575984	600.000000	
37.600594	491.000000	
37.625203	592.000000	
37.649812	598.000000	
37.674421	609.000000	
37.699031	616.000000	
37.723640	655.000000	
37.748249	711.000000	
37.772858	753.000000	
37.797468	855.000000	
37.822077	972.000000	
37.846686	1056.000000	
37.871295	1047.000000	
37.895905	1127.000000	
37.920514	1052.000000	
37.945123	1019.000000	
37.969732	940.000000	
37.994341	909.000000	
38.018951	853.000000	
38.043560	784.000000	
38.068169	799.000000	
38.092778	792.000000	
38.117388	758.000000	
38.141997	669.000000	
38.166606	755.000000	
38.191215	701.000000	
38.215825	690.000000	
38.240434	654.000000	
38.265043	639.000000	
38.289652	703.000000	
38.314262	713.000000	
38.338871	659.000000	
38.363480	711.000000	
38.388089	715.000000	
38.412699	727.000000	
38.437308	763.000000	
38.461917	730.000000	
38.486526	697.000000	
38.511136	679.000000	
38.535745	679.000000	
38.560354	658.000000	
38.584963	685.000000	
38.609573	685.000000	
38.634182	710.000000	
38.658791	737.000000	
38.683400	728.000000	
38.708010	716.000000	
38.732619	733.000000	
38.757228	750.000000	
38.781837	733.000000	
38.806446	655.000000	
38.831056	716.000000	
38.855665	666.000000	
38.880274	700.000000	
38.904883	717.000000	
38.929493	732.000000	
38.954102	768.000000	
38.978711	777.000000	
39.003320	762.000000	
39.027930	756.000000	
39.052539	769.000000	
39.077148	698.000000	
39.101757	727.000000	
39.126367	672.000000	
39.150976	664.000000	
39.175585	727.000000	
39.200194	687.000000	
39.224804	662.000000	
39.249413	710.000000	
39.274022	694.000000	
39.298631	662.000000	
39.323241	717.000000	
39.347850	696.000000	
39.372459	693.000000	
39.397068	685.000000	
39.421678	713.000000	
39.446287	670.000000	
39.470896	646.000000	
39.495505	641.000000	
39.520114	624.000000	
39.544724	565.000000	
39.569333	637.000000	
39.593942	583.000000	
39.618551	554.000000	
39.643161	543.000000	
39.667770	524.000000	
39.692379	531.000000	
39.716988	507.000000	
39.741598	558.000000	
39.766207	545.000000	
39.790816	539.000000	
39.815425	525.000000	
39.840035	568.000000	
39.864644	548.000000	
39.889253	477.000000	
39.913862	523.000000	
39.938472	565.000000	
39.963081	557.000000	
39.987690	521.000000	
40.012299	545.000000	
40.036909	580.000000	
40.061518	540.000000	
40.086127	567.000000	
40.110736	572.000000	
40.135346	718.000000	
40.159955	631.000000	
40.184564	745.000000	
40.209173	820.000000	
40.233782	831.000000	
40.258392	819.000000	
40.283001	792.000000	
40.307610	776.000000	
40.332219	836.000000	
40.356829	779.000000	
40.381438	693.000000	
40.406047	642.000000	
40.430656	620.000000	
40.455266	631.000000	
40.479875	567.000000	
40.504484	582.000000	
40.529093	586.000000	
40.553703	515.000000	
40.578312	559.000000	
40.602921	552.000000	
40.627530	543.000000	
40.652140	534.000000	
40.676749	528.000000	
40.701358	577.000000	
40.725967	586.000000	
40.750577	604.000000	
40.775186	590.000000	
40.799795	617.000000	
40.824404	649.000000	
40.849014	709.000000	
40.873623	691.000000	
40.898232	675.000000	
40.922841	734.000000	
40.947450	739.000000	
40.972060	759.000000	
40.996669	781.000000	
41.021278	752.000000	
41.045887	762.000000	
41.070497	721.000000	
41.095106	736.000000	
41.119715	698.000000	
41.144324	664.000000	
41.168934	583.000000	
41.193543	622.000000	
41.218152	634.000000	
41.242761	614.000000	
41.267371	652.000000	
41.291980	624.000000	
41.316589	658.000000	
41.341198	618.000000	
41.365808	690.000000	
41.390417	716.000000	
41.415026	731.000000	
41.439635	838.000000	
41.464245	915.000000	
41.488854	992.000000	
41.513463	1129.000000	
41.538072	1132.000000	
41.562682	1040.000000	
41.587291	1136.000000	
41.611900	1042.000000	
41.636509	970.000000	
41.661118	943.000000	
41.685728	858.000000	
41.710337	851.000000	
41.734946	750.000000	
41.759555	657.000000	
41.784165	674.000000	
41.808774	626.000000	
41.833383	592.000000	
41.857992	591.000000	
41.882602	603.000000	
41.907211	598.000000	
41.931820	660.000000	
41.956429	697.000000	
41.981039	765.000000	
42.005648	704.000000	
42.030257	758.000000	
42.054866	698.000000	
42.079476	732.000000	
42.104085	721.000000	
42.128694	687.000000	
42.153303	695.000000	
42.177913	701.000000	
42.202522	660.000000	
42.227131	624.000000	
42.251740	666.000000	
42.276350	629.000000	
42.300959	588.000000	
42.325568	597.000000	
42.350177	573.000000	
42.374786	598.000000	
42.399396	558.000000	
42.424005	579.000000	
42.448614	605.000000	
42.473223	581.000000	
42.497833	560.000000	
42.522442	524.000000	
42.547051	532.000000	
42.571660	505.000000	
42.596270	526.000000	
42.620879	511.000000	
42.645488	542.000000	
42.670097	528.000000	
42.694707	493.000000	
42.719316	517.000000	
42.743925	548.000000	
42.768534	499.000000	
42.793144	488.000000	
42.817753	540.000000	
42.842362	518.000000	
42.866971	529.000000	
42.891581	501.000000	
42.916190	540.000000	
42.940799	550.000000	
42.965408	556.000000	
42.990018	539.000000	
43.014627	526.000000	
43.039236	542.000000	
43.063845	550.000000	
43.088455	565.000000	
43.113064	546.000000	
43.137673	569.000000	
43.162282	558.000000	
43.186891	545.000000	
43.211501	542.000000	
43.236110	577.000000	
43.260719	518.000000	
43.285328	488.000000	
43.309938	577.000000	
43.334547	546.000000	
43.359156	597.000000	
43.383765	507.000000	
43.408375	528.000000	
43.432984	580.000000	
43.457593	562.000000	
43.482202	586.000000	
43.506812	604.000000	
43.531421	604.000000	
43.556030	639.000000	
43.580639	607.000000	
43.605249	593.000000	
43.629858	644.000000	
43.654467	611.000000	
43.679076	661.000000	
43.703686	641.000000	
43.728295	676.000000	
43.752904	704.000000	
43.777513	725.000000	
43.802123	649.000000	
43.826732	705.000000	
43.851341	646.000000	
43.875950	624.000000	
43.900559	652.000000	
43.925169	625.000000	
43.949778	628.000000	
43.974387	617.000000	
43.998996	666.000000	
44.023606	611.000000	
44.048215	666.000000	
44.072824	661.000000	
44.097433	593.000000	
44.122043	626.000000	
44.146652	646.000000	
44.171261	588.000000	
44.195870	626.000000	
44.220480	589.000000	
44.245089	562.000000	
44.269698	584.000000	
44.294307	580.000000	
44.318917	608.000000	
44.343526	638.000000	
44.368135	676.000000	
44.392744	717.000000	
44.417354	769.000000	
44.441963	811.000000	
44.466572	756.000000	
44.491181	776.000000	
44.515791	788.000000	
44.540400	689.000000	
44.565009	677.000000	
44.589618	685.000000	
44.614227	652.000000	
44.638837	634.000000	
44.663446	619.000000	
44.688055	609.000000	
44.712664	614.000000	
44.737274	613.000000	
44.761883	623.000000	
44.786492	665.000000	
44.811101	668.000000	
44.835711	631.000000	
44.860320	636.000000	
44.884929	682.000000	
44.909538	652.000000	
44.934148	657.000000	
44.958757	619.000000	
44.983366	606.000000	
45.007975	593.000000	
45.032585	618.000000	
45.057194	632.000000	
45.081803	614.000000	
45.106412	624.000000	
45.131022	625.000000	
45.155631	680.000000	
45.180240	679.000000	
45.204849	674.000000	
45.229459	652.000000	
45.254068	645.000000	
45.278677	602.000000	
45.303286	634.000000	
45.327895	654.000000	
45.352505	666.000000	
45.377114	647.000000	
45.401723	636.000000	
45.426332	578.000000	
45.450942	560.000000	
45.475551	621.000000	
45.500160	602.000000	
45.524769	567.000000	
45.549379	610.000000	
45.573988	586.000000	
45.598597	601.000000	
45.623206	535.000000	
45.647816	585.000000	
45.672425	576.000000	
45.697034	547.000000	
45.721643	606.000000	
45.746253	577.000000	
45.770862	610.000000	
45.795471	605.000000	
45.820080	567.000000	
45.844690	641.000000	
45.869299	673.000000	
45.893908	739.000000	
45.918517	738.000000	
45.943127	797.000000	
45.967736	902.000000	
45.992345	902.000000	
46.016954	913.000000	
46.041563	951.000000	
46.066173	1059.000000	
46.090782	1091.000000	
46.115391	1011.000000	
46.140000	986.000000	
46.164610	945.000000	
46.189219	912.000000	
46.213828	820.000000	
46.238437	774.000000	
46.263047	802.000000	
46.287656	689.000000	
46.312265	701.000000	
46.336874	646.000000	
46.361484	597.000000	
46.386093	655.000000	
46.410702	625.000000	
46.435311	598.000000	
46.459921	607.000000	
46.484530	672.000000	
46.509139	712.000000	
46.533748	679.000000	
46.558358	632.000000	
46.582967	676.000000	
46.607576	640.000000	
46.632185	659.000000	
46.656795	652.000000	
46.681404	632.000000	
46.706013	635.000000	
46.730622	603.000000	
46.755231	588.000000	
46.779841	594.000000	
46.804450	644.000000	
46.829059	565.000000	
46.853668	554.000000	
46.878278	550.000000	
46.902887	537.000000	
46.927496	600.000000	
46.952105	563.000000	
46.976715	619.000000	
47.001324	600.000000	
47.025933	626.000000	
47.050542	651.000000	
47.075152	583.000000	
47.099761	608.000000	
47.124370	557.000000	
47.148979	603.000000	
47.173589	600.000000	
47.198198	532.000000	
47.222807	609.000000	
47.247416	528.000000	
47.272026	638.000000	
47.296635	600.000000	
47.321244	634.000000	
47.345853	638.000000	
47.370463	648.000000	
47.395072	612.000000	
47.419681	588.000000	
47.444290	625.000000	
47.468899	626.000000	
47.493509	637.000000	
47.518118	584.000000	
47.542727	591.000000	
47.567336	545.000000	
47.591946	604.000000	
47.616555	569.000000	
47.641164	578.000000	
47.665773	568.000000	
47.690383	588.000000	
47.714992	567.000000	
47.739601	592.000000	
47.764210	587.000000	
47.788820	568.000000	
47.813429	584.000000	
47.838038	601.000000	
47.862647	579.000000	
47.887257	597.000000	
47.911866	578.000000	
47.936475	609.000000	
47.961084	603.000000	
47.985694	600.000000	
48.010303	630.000000	
48.034912	616.000000	
48.059521	612.000000	
48.084131	612.000000	
48.108740	579.000000	
48.133349	583.000000	
48.157958	545.000000	
48.182568	579.000000	
48.207177	602.000000	
48.231786	549.000000	
48.256395	607.000000	
48.281004	544.000000	
48.305614	569.000000	
48.330223	520.000000	
48.354832	545.000000	
48.379441	559.000000	
48.404051	525.000000	
48.428660	519.000000	
48.453269	557.000000	
48.477878	518.000000	
48.502488	530.000000	
48.527097	501.000000	
48.551706	551.000000	
48.576315	522.000000	
48.600925	474.000000	
48.625534	536.000000	
48.650143	490.000000	
48.674752	522.000000	
48.699362	532.000000	
48.723971	536.000000	
48.748580	495.000000	
48.773189	543.000000	
48.797799	498.000000	
48.822408	516.000000	
48.847017	552.000000	
48.871626	575.000000	
48.896236	528.000000	
48.920845	542.000000	
48.945454	551.000000	
48.970063	511.000000	
48.994672	490.000000	
49.019282	536.000000	
49.043891	581.000000	
49.068500	558.000000	
49.093109	525.000000	
49.117719	559.000000	
49.142328	562.000000	
49.166937	582.000000	
49.191546	635.000000	
49.216156	544.000000	
49.240765	603.000000	
49.265374	583.000000	
49.289983	575.000000	
49.314593	575.000000	
49.339202	570.000000	
49.363811	581.000000	
49.388420	605.000000	
49.413030	585.000000	
49.437639	498.000000	
49.462248	536.000000	
49.486857	545.000000	
49.511467	556.000000	
49.536076	522.000000	
49.560685	553.000000	
49.585294	616.000000	
49.609904	599.000000	
49.634513	530.000000	
49.659122	536.000000	
49.683731	539.000000	
49.708340	539.000000	
49.732950	582.000000	
49.757559	543.000000	
49.782168	560.000000	
49.806777	584.000000	
49.831387	625.000000	
49.855996	582.000000	
49.880605	607.000000	
49.905214	637.000000	
49.929824	583.000000	
49.954433	644.000000	
49.979042	656.000000	
50.003651	708.000000	
50.028261	621.000000	
50.052870	592.000000	
50.077479	570.000000	
50.102088	617.000000	
50.126698	561.000000	
50.151307	546.000000	
50.175916	518.000000	
50.200525	545.000000	
50.225135	547.000000	
50.249744	542.000000	
50.274353	571.000000	
50.298962	522.000000	
50.323572	552.000000	
50.348181	494.000000	
50.372790	507.000000	
50.397399	550.000000	
50.422008	506.000000	
50.446618	548.000000	
50.471227	560.000000	
50.495836	530.000000	
50.520445	567.000000	
50.545055	549.000000	
50.569664	545.000000	
50.594273	627.000000	
50.618882	576.000000	
50.643492	620.000000	
50.668101	690.000000	
50.692710	762.000000	
50.717319	668.000000	
50.741929	709.000000	
50.766538	655.000000	
50.791147	671.000000	
50.815756	681.000000	
50.840366	650.000000	
50.864975	644.000000	
50.889584	689.000000	
50.914193	689.000000	
50.938803	682.000000	
50.963412	619.000000	
50.988021	630.000000	
51.012630	605.000000	
51.037240	592.000000	
51.061849	608.000000	
51.086458	560.000000	
51.111067	570.000000	
51.135676	623.000000	
51.160286	604.000000	
51.184895	619.000000	
51.209504	618.000000	
51.234113	590.000000	
51.258723	600.000000	
51.283332	597.000000	
51.307941	585.000000	
51.332550	637.000000	
51.357160	625.000000	
51.381769	632.000000	
51.406378	588.000000	
51.430987	610.000000	
51.455597	639.000000	
51.480206	602.000000	
51.504815	581.000000	
51.529424	595.000000	
51.554034	642.000000	
51.578643	635.000000	
51.603252	606.000000	
51.627861	669.000000	
51.652471	671.000000	
51.677080	658.000000	
51.701689	634.000000	
51.726298	597.000000	
51.750908	595.000000	
51.775517	619.000000	
51.800126	586.000000	
51.824735	605.000000	
51.849344	569.000000	
51.873954	567.000000	
51.898563	525.000000	
51.923172	541.000000	
51.947781	596.000000	
51.972391	582.000000	
51.997000	598.000000	
52.021609	570.000000	
52.046218	613.000000	
52.070828	556.000000	
52.095437	563.000000	
52.120046	528.000000	
52.144655	535.000000	
52.169265	561.000000	
52.193874	585.000000	
52.218483	571.000000	
52.243092	614.000000	
52.267702	597.000000	
52.292311	568.000000	
52.316920	552.000000	
52.341529	610.000000	
52.366139	597.000000	
52.390748	615.000000	
52.415357	581.000000	
52.439966	583.000000	
52.464576	617.000000	
52.489185	703.000000	
52.513794	616.000000	
52.538403	633.000000	
52.563013	625.000000	
52.587622	608.000000	
52.612231	623.000000	
52.636840	621.000000	
52.661449	605.000000	
52.686059	625.000000	
52.710668	579.000000	
52.735277	610.000000	
52.759886	592.000000	
52.784496	568.000000	
52.809105	586.000000	
52.833714	608.000000	
52.858323	630.000000	
52.882933	589.000000	
52.907542	582.000000	
52.932151	616.000000	
52.956760	549.000000	
52.981370	537.000000	
53.005979	595.000000	
53.030588	572.000000	
53.055197	557.000000	
53.079807	550.000000	
53.104416	550.000000	
53.129025	544.000000	
53.153634	562.000000	
53.178244	564.000000	
53.202853	551.000000	
53.227462	535.000000	
53.252071	556.000000	
53.276681	523.000000	
53.301290	531.000000	
53.325899	570.000000	
53.350508	515.000000	
53.375117	560.000000	
53.399727	540.000000	
53.424336	524.000000	
53.448945	575.000000	
53.473554	583.000000	
53.498164	531.000000	
53.522773	507.000000	
53.547382	533.000000	
53.571991	536.000000	
53.596601	570.000000	
53.621210	548.000000	
53.645819	530.000000	
53.670428	556.000000	
53.695038	543.000000	
53.719647	550.000000	
53.744256	492.000000	
53.768865	543.000000	
53.793475	554.000000	
53.818084	497.000000	
53.842693	578.000000	
53.867302	493.000000	
53.891912	552.000000	
53.916521	567.000000	
53.941130	491.000000	
53.965739	552.000000	
53.990349	571.000000	
54.014958	549.000000	
54.039567	533.000000	
54.064176	537.000000	
54.088785	547.000000	
54.113395	525.000000	
54.138004	520.000000	
54.162613	536.000000	
54.187222	505.000000	
54.211832	546.000000	
54.236441	568.000000	
54.261050	556.000000	
54.285659	537.000000	
54.310269	545.000000	
54.334878	536.000000	
54.359487	561.000000	
54.384096	520.000000	
54.408706	557.000000	
54.433315	564.000000	
54.457924	586.000000	
54.482533	557.000000	
54.507143	586.000000	
54.531752	582.000000	
54.556361	572.000000	
54.580970	632.000000	
54.605580	661.000000	
54.630189	682.000000	
54.654798	728.000000	
54.679407	748.000000	
54.704017	804.000000	
54.728626	710.000000	
54.753235	751.000000	
54.777844	689.000000	
54.802453	667.000000	
54.827063	714.000000	
54.851672	649.000000	
54.876281	640.000000	
54.900890	648.000000	
54.925500	614.000000	
54.950109	628.000000	
54.974718	597.000000	
54.999327	558.000000	
55.023937	563.000000	
55.048546	587.000000	
55.073155	548.000000	
55.097764	587.000000	
55.122374	559.000000	
55.146983	558.000000	
55.171592	529.000000	
55.196201	552.000000	
55.220811	540.000000	
55.245420	562.000000	
55.270029	572.000000	
55.294638	557.000000	
55.319248	572.000000	
55.343857	597.000000	
55.368466	687.000000	
55.393075	694.000000	
55.417685	704.000000	
55.442294	662.000000	
55.466903	678.000000	
55.491512	728.000000	
55.516121	726.000000	
55.540731	697.000000	
55.565340	623.000000	
55.589949	683.000000	
55.614558	676.000000	
55.639168	609.000000	
55.663777	626.000000	
55.688386	653.000000	
55.712995	590.000000	
55.737605	597.000000	
55.762214	597.000000	
55.786823	561.000000	
55.811432	555.000000	
55.836042	518.000000	
55.860651	545.000000	
55.885260	595.000000	
55.909869	569.000000	
55.934479	562.000000	
55.959088	573.000000	
55.983697	586.000000	
56.008306	624.000000	
56.032916	627.000000	
56.057525	590.000000	
56.082134	577.000000	
56.106743	633.000000	
56.131353	588.000000	
56.155962	640.000000	
56.180571	625.000000	
56.205180	631.000000	
56.229789	625.000000	
56.254399	576.000000	
56.279008	584.000000	
56.303617	556.000000	
56.328226	561.000000	
56.352836	542.000000	
56.377445	569.000000	
56.402054	565.000000	
56.426663	549.000000	
56.451273	590.000000	
56.475882	534.000000	
56.500491	524.000000	
56.525100	516.000000	
56.549710	505.000000	
56.574319	543.000000	
56.598928	548.000000	
56.623537	532.000000	
56.648147	520.000000	
56.672756	517.000000	
56.697365	549.000000	
56.721974	510.000000	
56.746584	504.000000	
56.771193	561.000000	
56.795802	498.000000	
56.820411	547.000000	
56.845021	453.000000	
56.869630	501.000000	
56.894239	553.000000	
56.918848	534.000000	
56.943457	504.000000	
56.968067	498.000000	
56.992676	475.000000	
57.017285	508.000000	
57.041894	467.000000	
57.066504	480.000000	
57.091113	511.000000	
57.115722	501.000000	
57.140331	494.000000	
57.164941	474.000000	
57.189550	484.000000	
57.214159	518.000000	
57.238768	473.000000	
57.263378	530.000000	
57.287987	500.000000	
57.312596	525.000000	
57.337205	504.000000	
57.361815	482.000000	
57.386424	503.000000	
57.411033	444.000000	
57.435642	466.000000	
57.460252	460.000000	
57.484861	484.000000	
57.509470	502.000000	
57.534079	462.000000	
57.558689	540.000000	
57.583298	520.000000	
57.607907	531.000000	
57.632516	616.000000	
57.657126	493.000000	
57.681735	544.000000	
57.706344	523.000000	
57.730953	529.000000	
57.755562	537.000000	
57.780172	485.000000	
57.804781	502.000000	
57.829390	489.000000	
57.853999	511.000000	
57.878609	459.000000	
57.903218	490.000000	
57.927827	449.000000	
57.952436	510.000000	
57.977046	468.000000	
58.001655	463.000000	
58.026264	477.000000	
58.050873	484.000000	
58.075483	466.000000	
58.100092	452.000000	
58.124701	434.000000	
58.149310	521.000000	
58.173920	472.000000	
58.198529	431.000000	
58.223138	493.000000	
58.247747	482.000000	
58.272357	492.000000	
58.296966	491.000000	
58.321575	448.000000	
58.346184	465.000000	
58.370794	456.000000	
58.395403	438.000000	
58.420012	464.000000	
58.444621	450.000000	
58.469230	489.000000	
58.493840	485.000000	
58.518449	496.000000	
58.543058	475.000000	
58.567667	422.000000	
58.592277	473.000000	
58.616886	448.000000	
58.641495	459.000000	
58.666104	433.000000	
58.690714	467.000000	
58.715323	476.000000	
58.739932	433.000000	
58.764541	398.000000	
58.789151	447.000000	
58.813760	461.000000	
58.838369	485.000000	
58.862978	425.000000	
58.887588	448.000000	
58.912197	442.000000	
58.936806	417.000000	
58.961415	450.000000	
58.986025	439.000000	
59.010634	459.000000	
59.035243	445.000000	
59.059852	481.000000	
59.084462	455.000000	
59.109071	449.000000	
59.133680	443.000000	
59.158289	407.000000	
59.182898	431.000000	
59.207508	450.000000	
59.232117	457.000000	
59.256726	455.000000	
59.281335	414.000000	
59.305945	422.000000	
59.330554	427.000000	
59.355163	451.000000	
59.379772	469.000000	
59.404382	423.000000	
59.428991	405.000000	
59.453600	385.000000	
59.478209	417.000000	
59.502819	463.000000	
59.527428	435.000000	
59.552037	447.000000	
59.576646	421.000000	
59.601256	453.000000	
59.625865	462.000000	
59.650474	457.000000	
59.675083	475.000000	
59.699693	420.000000	
59.724302	440.000000	
59.748911	420.000000	
59.773520	439.000000	
59.798130	465.000000	
59.822739	395.000000	
59.847348	459.000000	
59.871957	438.000000	
59.896566	388.000000	
59.921176	404.000000	
59.945785	436.000000	
59.970394	466.000000	
59.995003	420.000000	
