;content of C:\2023\IFUNAM\Dr-IVAN\NTCD.raw - (Diffrac Plus V4 file)
_FILEVERSION = 3
_SAMPLE = NTCD
_+SAMPLE
_USER = Lab Manager
_GONIOMETER_CODE = 21
_STAGE_CODE = 7
; Goniometer : D8 theta/theta, stage : Chi drive
_SAMPLE_CHANGER_CODE = 0
_ATTACHMENTS_CODE = 0
_GONIOMETER_RADIUS = 280
_SOLLER_SLITS = 2
_FIXED_DETSLIT = 6
_MONOCHROMATOR = 0
; Incident beam monochromator : None
_BETA_FILTER = N
_ANALYZER_CODE = 0
; Received beam analyzer : None
_DATEMEASURED = 22-May-2023 15:43:03
_RUNTIME = 7328.756
_WL_UNIT = A
_WL1 = 1.540600
_WL2 = 1.544390
_WL3 = 1.392220
_WLRATIO = 0.500000
_ANODE = Cu
_V4_INF_USER = Lab Manager
_V4_INF_SAMPLEID = NTCD
_V4_INF_CREATOR = BrmlToV4Converter
_V4_INF_CREATOR_VERSION = 7.3.1.0

; Data for range 1
_DRIVE = COUPLED
_STEPTIME = 576
_STEPSIZE = 0.024609
_STEPMODE = C
_START = 3.000000
_THETA = 1.500000
_2THETA = 3.000000
_PHI = 85.515625
_DIVERGENCE = 0.379996
_DETECTORSLIT = out
_TIMESTARTED = 0
_ROTATION_SPEED = 15
_KV = 40
_MA = 35
_RANGE_WL = 1.541800
_3DPLANE = 0
_V4_PSD2THETA = 9999.000000
_V4_PSDCHANNEL1 = 0
_V4_PSDAPERTURE = 2.953109
_V4_PSDTYPE = 5
_V4_PSDFIXED = 0
_V4_COUNTERS_MASK = 1
_V4_DRIVES_MASK = 0
_V4_ENCODERS_MASK = 0
_2THETACOUNTS = 1
; 2THETA	Cnt2_D1	
3.000000	1540.000000	
3.024609	1565.000000	
3.049218	1427.000000	
3.073828	1485.000000	
3.098437	1473.000000	
3.123046	1458.000000	
3.147655	1414.000000	
3.172265	1496.000000	
3.196874	1462.000000	
3.221483	1410.000000	
3.246092	1337.000000	
3.270702	1354.000000	
3.295311	1381.000000	
3.319920	1362.000000	
3.344529	1376.000000	
3.369139	1334.000000	
3.393748	1255.000000	
3.418357	1330.000000	
3.442966	1284.000000	
3.467576	1270.000000	
3.492185	1286.000000	
3.516794	1231.000000	
3.541403	1278.000000	
3.566013	1238.000000	
3.590622	1242.000000	
3.615231	1203.000000	
3.639840	1224.000000	
3.664450	1276.000000	
3.689059	1189.000000	
3.713668	1234.000000	
3.738277	1197.000000	
3.762886	1194.000000	
3.787496	1091.000000	
3.812105	1129.000000	
3.836714	1194.000000	
3.861323	1220.000000	
3.885933	1168.000000	
3.910542	1099.000000	
3.935151	1139.000000	
3.959760	1134.000000	
3.984370	1108.000000	
4.008979	1178.000000	
4.033588	1063.000000	
4.058197	1072.000000	
4.082807	1083.000000	
4.107416	1132.000000	
4.132025	1094.000000	
4.156634	1117.000000	
4.181244	1155.000000	
4.205853	1073.000000	
4.230462	1025.000000	
4.255071	1083.000000	
4.279681	1109.000000	
4.304290	1132.000000	
4.328899	1119.000000	
4.353508	1021.000000	
4.378118	1075.000000	
4.402727	1094.000000	
4.427336	1033.000000	
4.451945	1033.000000	
4.476554	1042.000000	
4.501164	1028.000000	
4.525773	1041.000000	
4.550382	1020.000000	
4.574991	1093.000000	
4.599601	1119.000000	
4.624210	1061.000000	
4.648819	1033.000000	
4.673428	1071.000000	
4.698038	1047.000000	
4.722647	1058.000000	
4.747256	1050.000000	
4.771865	1002.000000	
4.796475	1060.000000	
4.821084	1013.000000	
4.845693	973.000000	
4.870302	1026.000000	
4.894912	999.000000	
4.919521	997.000000	
4.944130	1011.000000	
4.968739	1023.000000	
4.993349	1008.000000	
5.017958	1006.000000	
5.042567	995.000000	
5.067176	990.000000	
5.091786	1055.000000	
5.116395	1002.000000	
5.141004	1052.000000	
5.165613	981.000000	
5.190222	966.000000	
5.214832	1009.000000	
5.239441	991.000000	
5.264050	966.000000	
5.288659	1033.000000	
5.313269	983.000000	
5.337878	985.000000	
5.362487	955.000000	
5.387096	1046.000000	
5.411706	958.000000	
5.436315	986.000000	
5.460924	1000.000000	
5.485533	1008.000000	
5.510143	969.000000	
5.534752	1035.000000	
5.559361	1026.000000	
5.583970	977.000000	
5.608580	959.000000	
5.633189	976.000000	
5.657798	1046.000000	
5.682407	1005.000000	
5.707017	974.000000	
5.731626	989.000000	
5.756235	919.000000	
5.780844	993.000000	
5.805454	977.000000	
5.830063	993.000000	
5.854672	961.000000	
5.879281	993.000000	
5.903891	942.000000	
5.928500	997.000000	
5.953109	949.000000	
5.977718	996.000000	
6.002327	1000.000000	
6.026937	974.000000	
6.051546	1050.000000	
6.076155	997.000000	
6.100764	1024.000000	
6.125374	1050.000000	
6.149983	961.000000	
6.174592	1001.000000	
6.199201	989.000000	
6.223811	978.000000	
6.248420	1042.000000	
6.273029	989.000000	
6.297638	1078.000000	
6.322248	1063.000000	
6.346857	1014.000000	
6.371466	992.000000	
6.396075	994.000000	
6.420685	1041.000000	
6.445294	1081.000000	
6.469903	1093.000000	
6.494512	1017.000000	
6.519122	1086.000000	
6.543731	1017.000000	
6.568340	1031.000000	
6.592949	1093.000000	
6.617559	1062.000000	
6.642168	1081.000000	
6.666777	1043.000000	
6.691386	1078.000000	
6.715995	1070.000000	
6.740605	1103.000000	
6.765214	1087.000000	
6.789823	1052.000000	
6.814432	1113.000000	
6.839042	1116.000000	
6.863651	1104.000000	
6.888260	1080.000000	
6.912869	1104.000000	
6.937479	1099.000000	
6.962088	1142.000000	
6.986697	1132.000000	
7.011306	1138.000000	
7.035916	1145.000000	
7.060525	1143.000000	
7.085134	1200.000000	
7.109743	1159.000000	
7.134353	1132.000000	
7.158962	1250.000000	
7.183571	1227.000000	
7.208180	1140.000000	
7.232790	1187.000000	
7.257399	1199.000000	
7.282008	1249.000000	
7.306617	1214.000000	
7.331227	1201.000000	
7.355836	1230.000000	
7.380445	1272.000000	
7.405054	1311.000000	
7.429663	1287.000000	
7.454273	1286.000000	
7.478882	1302.000000	
7.503491	1338.000000	
7.528100	1227.000000	
7.552710	1290.000000	
7.577319	1341.000000	
7.601928	1328.000000	
7.626537	1320.000000	
7.651147	1429.000000	
7.675756	1365.000000	
7.700365	1364.000000	
7.724974	1361.000000	
7.749584	1422.000000	
7.774193	1385.000000	
7.798802	1339.000000	
7.823411	1371.000000	
7.848021	1430.000000	
7.872630	1431.000000	
7.897239	1442.000000	
7.921848	1396.000000	
7.946458	1461.000000	
7.971067	1534.000000	
7.995676	1495.000000	
8.020285	1443.000000	
8.044895	1513.000000	
8.069504	1562.000000	
8.094113	1457.000000	
8.118722	1542.000000	
8.143331	1604.000000	
8.167941	1552.000000	
8.192550	1580.000000	
8.217159	1576.000000	
8.241768	1626.000000	
8.266378	1613.000000	
8.290987	1634.000000	
8.315596	1670.000000	
8.340205	1661.000000	
8.364815	1709.000000	
8.389424	1732.000000	
8.414033	1625.000000	
8.438642	1701.000000	
8.463252	1661.000000	
8.487861	1680.000000	
8.512470	1734.000000	
8.537079	1697.000000	
8.561689	1693.000000	
8.586298	1715.000000	
8.610907	1749.000000	
8.635516	1785.000000	
8.660126	1799.000000	
8.684735	1818.000000	
8.709344	1771.000000	
8.733953	1785.000000	
8.758563	1801.000000	
8.783172	1845.000000	
8.807781	1850.000000	
8.832390	1852.000000	
8.856999	1809.000000	
8.881609	1857.000000	
8.906218	1902.000000	
8.930827	1914.000000	
8.955436	1924.000000	
8.980046	1888.000000	
9.004655	1867.000000	
9.029264	1963.000000	
9.053873	2089.000000	
9.078483	1989.000000	
9.103092	2051.000000	
9.127701	2035.000000	
9.152310	2096.000000	
9.176920	2098.000000	
9.201529	2142.000000	
9.226138	2199.000000	
9.250747	2147.000000	
9.275357	2169.000000	
9.299966	2229.000000	
9.324575	2239.000000	
9.349184	2280.000000	
9.373794	2134.000000	
9.398403	2262.000000	
9.423012	2232.000000	
9.447621	2326.000000	
9.472231	2256.000000	
9.496840	2258.000000	
9.521449	2256.000000	
9.546058	2301.000000	
9.570667	2427.000000	
9.595277	2347.000000	
9.619886	2374.000000	
9.644495	2377.000000	
9.669104	2428.000000	
9.693714	2465.000000	
9.718323	2486.000000	
9.742932	2338.000000	
9.767541	2470.000000	
9.792151	2558.000000	
9.816760	2452.000000	
9.841369	2482.000000	
9.865978	2573.000000	
9.890588	2552.000000	
9.915197	2590.000000	
9.939806	2541.000000	
9.964415	2526.000000	
9.989025	2610.000000	
10.013634	2587.000000	
10.038243	2518.000000	
10.062852	2612.000000	
10.087462	2567.000000	
10.112071	2649.000000	
10.136680	2540.000000	
10.161289	2603.000000	
10.185899	2632.000000	
10.210508	2592.000000	
10.235117	2683.000000	
10.259726	2662.000000	
10.284336	2756.000000	
10.308945	2639.000000	
10.333554	2711.000000	
10.358163	2746.000000	
10.382772	2756.000000	
10.407382	2691.000000	
10.431991	2650.000000	
10.456600	2768.000000	
10.481209	2800.000000	
10.505819	2863.000000	
10.530428	2879.000000	
10.555037	2743.000000	
10.579646	2884.000000	
10.604256	2852.000000	
10.628865	2940.000000	
10.653474	2959.000000	
10.678083	3004.000000	
10.702693	3100.000000	
10.727302	3157.000000	
10.751911	3117.000000	
10.776520	3099.000000	
10.801130	3170.000000	
10.825739	3175.000000	
10.850348	3162.000000	
10.874957	3113.000000	
10.899567	3022.000000	
10.924176	2986.000000	
10.948785	3174.000000	
10.973394	3075.000000	
10.998004	3052.000000	
11.022613	3149.000000	
11.047222	3184.000000	
11.071831	2989.000000	
11.096440	3147.000000	
11.121050	3187.000000	
11.145659	3149.000000	
11.170268	3196.000000	
11.194877	3239.000000	
11.219487	3336.000000	
11.244096	3196.000000	
11.268705	3366.000000	
11.293314	3367.000000	
11.317924	3546.000000	
11.342533	3616.000000	
11.367142	3721.000000	
11.391751	3947.000000	
11.416361	4007.000000	
11.440970	4221.000000	
11.465579	4552.000000	
11.490188	5018.000000	
11.514798	5245.000000	
11.539407	5532.000000	
11.564016	6210.000000	
11.588625	7013.000000	
11.613235	8169.000000	
11.637844	10188.000000	
11.662453	13394.000000	
11.687062	18957.000000	
11.711672	27309.000000	
11.736281	39833.000000	
11.760890	56285.000000	
11.785499	74467.000000	
11.810108	93082.000000	
11.834718	110359.000000	
11.859327	123359.000000	
11.883936	130485.000000	
11.908545	132330.000000	
11.933155	127721.000000	
11.957764	116438.000000	
11.982373	102826.000000	
12.006982	84714.000000	
12.031592	68201.000000	
12.056201	52195.000000	
12.080810	39289.000000	
12.105419	29179.000000	
12.130029	21692.000000	
12.154638	16540.000000	
12.179247	12906.000000	
12.203856	9843.000000	
12.228466	8144.000000	
12.253075	6740.000000	
12.277684	5972.000000	
12.302293	5776.000000	
12.326903	5354.000000	
12.351512	5260.000000	
12.376121	5042.000000	
12.400730	5137.000000	
12.425340	5053.000000	
12.449949	4944.000000	
12.474558	4945.000000	
12.499167	4956.000000	
12.523776	4785.000000	
12.548386	4721.000000	
12.572995	4809.000000	
12.597604	4719.000000	
12.622213	4830.000000	
12.646823	4717.000000	
12.671432	4844.000000	
12.696041	4827.000000	
12.720650	4776.000000	
12.745260	4944.000000	
12.769869	5161.000000	
12.794478	5232.000000	
12.819087	5587.000000	
12.843697	5628.000000	
12.868306	5767.000000	
12.892915	5819.000000	
12.917524	5633.000000	
12.942134	5729.000000	
12.966743	5728.000000	
12.991352	5535.000000	
13.015961	5387.000000	
13.040571	5176.000000	
13.065180	5024.000000	
13.089789	4840.000000	
13.114398	4698.000000	
13.139008	4622.000000	
13.163617	4605.000000	
13.188226	4405.000000	
13.212835	4352.000000	
13.237444	4305.000000	
13.262054	4392.000000	
13.286663	4335.000000	
13.311272	4265.000000	
13.335881	4325.000000	
13.360491	4318.000000	
13.385100	4220.000000	
13.409709	4252.000000	
13.434318	4252.000000	
13.458928	4222.000000	
13.483537	4214.000000	
13.508146	4247.000000	
13.532755	4169.000000	
13.557365	4259.000000	
13.581974	4217.000000	
13.606583	4084.000000	
13.631192	4085.000000	
13.655802	4205.000000	
13.680411	4056.000000	
13.705020	4232.000000	
13.729629	4243.000000	
13.754239	4156.000000	
13.778848	4151.000000	
13.803457	4085.000000	
13.828066	4161.000000	
13.852676	4087.000000	
13.877285	3984.000000	
13.901894	4001.000000	
13.926503	4267.000000	
13.951112	4273.000000	
13.975722	4181.000000	
14.000331	4197.000000	
14.024940	4055.000000	
14.049549	4073.000000	
14.074159	4144.000000	
14.098768	3994.000000	
14.123377	4022.000000	
14.147986	4153.000000	
14.172596	4044.000000	
14.197205	4066.000000	
14.221814	4128.000000	
14.246423	4220.000000	
14.271033	4099.000000	
14.295642	3940.000000	
14.320251	3970.000000	
14.344860	4074.000000	
14.369470	4005.000000	
14.394079	4207.000000	
14.418688	4081.000000	
14.443297	4014.000000	
14.467907	4026.000000	
14.492516	4099.000000	
14.517125	4110.000000	
14.541734	4185.000000	
14.566344	4234.000000	
14.590953	4265.000000	
14.615562	4804.000000	
14.640171	5191.000000	
14.664780	5727.000000	
14.689390	6487.000000	
14.713999	7395.000000	
14.738608	8027.000000	
14.763217	8544.000000	
14.787827	9039.000000	
14.812436	8955.000000	
14.837045	8821.000000	
14.861654	8531.000000	
14.886264	8252.000000	
14.910873	7906.000000	
14.935482	7224.000000	
14.960091	6707.000000	
14.984701	6010.000000	
15.009310	5521.000000	
15.033919	5170.000000	
15.058528	4851.000000	
15.083138	4561.000000	
15.107747	4365.000000	
15.132356	4228.000000	
15.156965	3978.000000	
15.181575	3984.000000	
15.206184	3900.000000	
15.230793	3856.000000	
15.255402	3823.000000	
15.280012	3713.000000	
15.304621	3852.000000	
15.329230	3835.000000	
15.353839	3768.000000	
15.378449	3787.000000	
15.403058	3735.000000	
15.427667	3742.000000	
15.452276	3801.000000	
15.476885	3691.000000	
15.501495	3723.000000	
15.526104	3849.000000	
15.550713	3802.000000	
15.575322	3858.000000	
15.599932	3736.000000	
15.624541	3729.000000	
15.649150	3770.000000	
15.673759	3897.000000	
15.698369	3655.000000	
15.722978	3784.000000	
15.747587	3786.000000	
15.772196	3690.000000	
15.796806	3802.000000	
15.821415	3718.000000	
15.846024	3704.000000	
15.870633	3753.000000	
15.895243	3813.000000	
15.919852	3774.000000	
15.944461	3738.000000	
15.969070	3775.000000	
15.993680	3758.000000	
16.018289	3736.000000	
16.042898	3760.000000	
16.067507	3845.000000	
16.092117	3853.000000	
16.116726	3926.000000	
16.141335	3944.000000	
16.165944	3897.000000	
16.190553	4180.000000	
16.215163	4257.000000	
16.239772	4451.000000	
16.264381	4472.000000	
16.288990	4498.000000	
16.313600	4620.000000	
16.338209	4602.000000	
16.362818	4890.000000	
16.387427	4820.000000	
16.412037	4633.000000	
16.436646	4641.000000	
16.461255	4497.000000	
16.485864	4492.000000	
16.510474	4084.000000	
16.535083	4033.000000	
16.559692	3893.000000	
16.584301	3879.000000	
16.608911	3879.000000	
16.633520	3881.000000	
16.658129	3665.000000	
16.682738	3729.000000	
16.707348	3640.000000	
16.731957	3680.000000	
16.756566	3791.000000	
16.781175	3624.000000	
16.805785	3588.000000	
16.830394	3632.000000	
16.855003	3654.000000	
16.879612	3600.000000	
16.904221	3570.000000	
16.928831	3692.000000	
16.953440	3698.000000	
16.978049	3816.000000	
17.002658	3818.000000	
17.027268	3864.000000	
17.051877	3950.000000	
17.076486	4122.000000	
17.101095	4152.000000	
17.125705	4127.000000	
17.150314	4237.000000	
17.174923	4091.000000	
17.199532	4192.000000	
17.224142	4026.000000	
17.248751	4052.000000	
17.273360	4085.000000	
17.297969	3977.000000	
17.322579	3954.000000	
17.347188	3796.000000	
17.371797	3722.000000	
17.396406	3677.000000	
17.421016	3608.000000	
17.445625	3566.000000	
17.470234	3617.000000	
17.494843	3539.000000	
17.519453	3499.000000	
17.544062	3530.000000	
17.568671	3491.000000	
17.593280	3476.000000	
17.617889	3502.000000	
17.642499	3471.000000	
17.667108	3465.000000	
17.691717	3469.000000	
17.716326	3520.000000	
17.740936	3542.000000	
17.765545	3517.000000	
17.790154	3503.000000	
17.814763	3494.000000	
17.839373	3484.000000	
17.863982	3381.000000	
17.888591	3507.000000	
17.913200	3392.000000	
17.937810	3480.000000	
17.962419	3586.000000	
17.987028	3538.000000	
18.011637	3434.000000	
18.036247	3484.000000	
18.060856	3476.000000	
18.085465	3535.000000	
18.110074	3598.000000	
18.134684	3541.000000	
18.159293	3522.000000	
18.183902	3683.000000	
18.208511	3536.000000	
18.233121	3616.000000	
18.257730	3667.000000	
18.282339	3509.000000	
18.306948	3576.000000	
18.331557	3519.000000	
18.356167	3598.000000	
18.380776	3609.000000	
18.405385	3540.000000	
18.429994	3702.000000	
18.454604	3514.000000	
18.479213	3422.000000	
18.503822	3515.000000	
18.528431	3434.000000	
18.553041	3465.000000	
18.577650	3623.000000	
18.602259	3476.000000	
18.626868	3496.000000	
18.651478	3532.000000	
18.676087	3470.000000	
18.700696	3552.000000	
18.725305	3559.000000	
18.749915	3628.000000	
18.774524	3481.000000	
18.799133	3535.000000	
18.823742	3447.000000	
18.848352	3480.000000	
18.872961	3604.000000	
18.897570	3483.000000	
18.922179	3564.000000	
18.946789	3494.000000	
18.971398	3488.000000	
18.996007	3465.000000	
19.020616	3479.000000	
19.045225	3487.000000	
19.069835	3510.000000	
19.094444	3665.000000	
19.119053	3658.000000	
19.143662	3608.000000	
19.168272	3525.000000	
19.192881	3674.000000	
19.217490	3759.000000	
19.242099	3676.000000	
19.266709	3700.000000	
19.291318	3609.000000	
19.315927	3705.000000	
19.340536	3696.000000	
19.365146	3590.000000	
19.389755	3678.000000	
19.414364	3619.000000	
19.438973	3605.000000	
19.463583	3612.000000	
19.488192	3601.000000	
19.512801	3639.000000	
19.537410	3557.000000	
19.562020	3580.000000	
19.586629	3572.000000	
19.611238	3598.000000	
19.635847	3546.000000	
19.660457	3610.000000	
19.685066	3703.000000	
19.709675	3673.000000	
19.734284	3762.000000	
19.758894	3810.000000	
19.783503	3722.000000	
19.808112	3851.000000	
19.832721	3754.000000	
19.857330	3941.000000	
19.881940	3823.000000	
19.906549	3783.000000	
19.931158	3798.000000	
19.955767	3723.000000	
19.980377	3661.000000	
20.004986	3814.000000	
20.029595	3700.000000	
20.054204	3647.000000	
20.078814	3626.000000	
20.103423	3689.000000	
20.128032	3705.000000	
20.152641	3687.000000	
20.177251	3806.000000	
20.201860	3814.000000	
20.226469	3702.000000	
20.251078	3815.000000	
20.275688	3784.000000	
20.300297	3799.000000	
20.324906	3936.000000	
20.349515	4066.000000	
20.374125	4245.000000	
20.398734	4385.000000	
20.423343	4638.000000	
20.447952	5091.000000	
20.472562	5216.000000	
20.497171	5824.000000	
20.521780	5976.000000	
20.546389	6131.000000	
20.570998	6284.000000	
20.595608	6304.000000	
20.620217	6145.000000	
20.644826	6132.000000	
20.669435	5912.000000	
20.694045	5574.000000	
20.718654	5209.000000	
20.743263	4970.000000	
20.767872	4742.000000	
20.792482	4609.000000	
20.817091	4389.000000	
20.841700	4362.000000	
20.866309	4368.000000	
20.890919	4259.000000	
20.915528	4135.000000	
20.940137	4177.000000	
20.964746	4189.000000	
20.989356	4046.000000	
21.013965	4094.000000	
21.038574	3930.000000	
21.063183	3875.000000	
21.087793	3819.000000	
21.112402	4019.000000	
21.137011	3963.000000	
21.161620	3921.000000	
21.186230	3871.000000	
21.210839	4042.000000	
21.235448	3926.000000	
21.260057	4003.000000	
21.284666	3825.000000	
21.309276	3933.000000	
21.333885	3938.000000	
21.358494	4033.000000	
21.383103	4139.000000	
21.407713	4228.000000	
21.432322	4384.000000	
21.456931	4503.000000	
21.481540	4748.000000	
21.506150	4734.000000	
21.530759	5002.000000	
21.555368	5142.000000	
21.579977	5381.000000	
21.604587	5221.000000	
21.629196	5361.000000	
21.653805	5227.000000	
21.678414	5193.000000	
21.703024	5140.000000	
21.727633	4951.000000	
21.752242	5016.000000	
21.776851	5113.000000	
21.801461	4910.000000	
21.826070	4982.000000	
21.850679	4929.000000	
21.875288	4946.000000	
21.899898	4957.000000	
21.924507	4951.000000	
21.949116	4995.000000	
21.973725	5072.000000	
21.998334	5154.000000	
22.022944	5257.000000	
22.047553	5505.000000	
22.072162	5860.000000	
22.096771	6184.000000	
22.121381	6814.000000	
22.145990	7740.000000	
22.170599	9313.000000	
22.195208	12068.000000	
22.219818	16735.000000	
22.244427	22775.000000	
22.269036	31238.000000	
22.293645	39588.000000	
22.318255	46919.000000	
22.342864	53642.000000	
22.367473	57174.000000	
22.392082	58540.000000	
22.416692	57882.000000	
22.441301	55031.000000	
22.465910	50469.000000	
22.490519	45192.000000	
22.515129	39256.000000	
22.539738	32991.000000	
22.564347	27091.000000	
22.588956	22218.000000	
22.613566	18168.000000	
22.638175	15002.000000	
22.662784	12524.000000	
22.687393	10904.000000	
22.712002	9337.000000	
22.736612	8352.000000	
22.761221	7891.000000	
22.785830	7538.000000	
22.810439	7290.000000	
22.835049	7458.000000	
22.859658	7753.000000	
22.884267	8322.000000	
22.908876	9109.000000	
22.933486	9888.000000	
22.958095	11385.000000	
22.982704	13387.000000	
23.007313	17393.000000	
23.031923	23500.000000	
23.056532	31921.000000	
23.081141	41576.000000	
23.105750	51332.000000	
23.130360	60100.000000	
23.154969	66330.000000	
23.179578	69431.000000	
23.204187	70634.000000	
23.228797	68418.000000	
23.253406	64065.000000	
23.278015	58270.000000	
23.302624	50727.000000	
23.327234	43049.000000	
23.351843	35973.000000	
23.376452	29056.000000	
23.401061	23749.000000	
23.425670	19193.000000	
23.450280	15718.000000	
23.474889	13060.000000	
23.499498	11354.000000	
23.524107	10557.000000	
23.548717	10323.000000	
23.573326	10980.000000	
23.597935	13116.000000	
23.622544	16741.000000	
23.647154	20673.000000	
23.671763	24386.000000	
23.696372	27851.000000	
23.720981	30215.000000	
23.745591	31420.000000	
23.770200	31404.000000	
23.794809	30128.000000	
23.819418	28231.000000	
23.844028	25336.000000	
23.868637	22475.000000	
23.893246	19019.000000	
23.917855	16310.000000	
23.942465	13567.000000	
23.967074	11369.000000	
23.991683	9784.000000	
24.016292	8365.000000	
24.040902	7445.000000	
24.065511	6614.000000	
24.090120	6252.000000	
24.114729	5798.000000	
24.139339	5488.000000	
24.163948	5468.000000	
24.188557	5302.000000	
24.213166	5164.000000	
24.237775	5103.000000	
24.262385	5022.000000	
24.286994	4998.000000	
24.311603	5061.000000	
24.336212	5053.000000	
24.360822	5070.000000	
24.385431	5019.000000	
24.410040	4988.000000	
24.434649	4975.000000	
24.459259	4982.000000	
24.483868	4898.000000	
24.508477	5016.000000	
24.533086	4849.000000	
24.557696	4987.000000	
24.582305	4931.000000	
24.606914	4821.000000	
24.631523	4942.000000	
24.656133	4857.000000	
24.680742	4815.000000	
24.705351	4900.000000	
24.729960	4821.000000	
24.754570	4877.000000	
24.779179	4993.000000	
24.803788	4985.000000	
24.828397	5126.000000	
24.853007	5231.000000	
24.877616	5187.000000	
24.902225	5169.000000	
24.926834	5248.000000	
24.951443	5258.000000	
24.976053	5175.000000	
25.000662	5042.000000	
25.025271	4984.000000	
25.049880	5012.000000	
25.074490	5053.000000	
25.099099	5019.000000	
25.123708	4850.000000	
25.148317	4876.000000	
25.172927	4873.000000	
25.197536	4882.000000	
25.222145	4916.000000	
25.246754	4915.000000	
25.271364	4831.000000	
25.295973	4809.000000	
25.320582	4919.000000	
25.345191	4725.000000	
25.369801	4869.000000	
25.394410	4858.000000	
25.419019	4957.000000	
25.443628	4868.000000	
25.468238	4897.000000	
25.492847	5134.000000	
25.517456	5319.000000	
25.542065	5577.000000	
25.566675	5838.000000	
25.591284	6092.000000	
25.615893	6484.000000	
25.640502	6629.000000	
25.665111	6647.000000	
25.689721	6778.000000	
25.714330	6726.000000	
25.738939	6690.000000	
25.763548	6433.000000	
25.788158	6323.000000	
25.812767	6115.000000	
25.837376	6045.000000	
25.861985	5683.000000	
25.886595	5491.000000	
25.911204	5344.000000	
25.935813	5246.000000	
25.960422	5118.000000	
25.985032	5129.000000	
26.009641	4932.000000	
26.034250	5121.000000	
26.058859	5024.000000	
26.083469	5045.000000	
26.108078	5065.000000	
26.132687	5205.000000	
26.157296	5082.000000	
26.181906	5274.000000	
26.206515	5333.000000	
26.231124	5291.000000	
26.255733	5453.000000	
26.280343	5707.000000	
26.304952	5658.000000	
26.329561	5690.000000	
26.354170	5910.000000	
26.378779	6228.000000	
26.403389	6511.000000	
26.427998	6823.000000	
26.452607	6955.000000	
26.477216	7409.000000	
26.501826	7711.000000	
26.526435	7933.000000	
26.551044	8153.000000	
26.575653	8407.000000	
26.600263	8482.000000	
26.624872	8473.000000	
26.649481	8457.000000	
26.674090	8381.000000	
26.698700	8081.000000	
26.723309	8082.000000	
26.747918	7853.000000	
26.772527	8061.000000	
26.797137	7696.000000	
26.821746	7525.000000	
26.846355	7428.000000	
26.870964	7552.000000	
26.895574	7321.000000	
26.920183	7532.000000	
26.944792	7481.000000	
26.969401	7560.000000	
26.994011	7571.000000	
27.018620	7702.000000	
27.043229	7696.000000	
27.067838	7957.000000	
27.092447	8024.000000	
27.117057	8015.000000	
27.141666	8302.000000	
27.166275	8554.000000	
27.190884	8892.000000	
27.215494	9265.000000	
27.240103	9462.000000	
27.264712	10156.000000	
27.289321	10997.000000	
27.313931	12049.000000	
27.338540	13804.000000	
27.363149	16051.000000	
27.387758	19254.000000	
27.412368	24633.000000	
27.436977	32891.000000	
27.461586	47656.000000	
27.486195	71496.000000	
27.510805	103105.000000	
27.535414	135905.000000	
27.560023	166213.000000	
27.584632	192074.000000	
27.609242	210616.000000	
27.633851	219388.000000	
27.658460	218385.000000	
27.683069	210347.000000	
27.707679	196686.000000	
27.732288	178659.000000	
27.756897	159503.000000	
27.781506	141456.000000	
27.806115	125393.000000	
27.830725	112300.000000	
27.855334	101211.000000	
27.879943	93066.000000	
27.904552	85811.000000	
27.929162	78853.000000	
27.953771	72411.000000	
27.978380	65336.000000	
28.002989	58028.000000	
28.027599	51424.000000	
28.052208	44424.000000	
28.076817	37726.000000	
28.101426	31914.000000	
28.126036	26414.000000	
28.150645	22639.000000	
28.175254	19579.000000	
28.199863	17307.000000	
28.224473	15502.000000	
28.249082	14413.000000	
28.273691	13516.000000	
28.298300	12901.000000	
28.322910	12943.000000	
28.347519	13655.000000	
28.372128	14230.000000	
28.396737	14973.000000	
28.421347	15655.000000	
28.445956	16342.000000	
28.470565	16725.000000	
28.495174	16240.000000	
28.519783	15206.000000	
28.544393	14415.000000	
28.569002	13187.000000	
28.593611	12301.000000	
28.618220	11285.000000	
28.642830	10222.000000	
28.667439	9341.000000	
28.692048	8962.000000	
28.716657	8386.000000	
28.741267	7923.000000	
28.765876	7624.000000	
28.790485	7144.000000	
28.815094	7037.000000	
28.839704	6798.000000	
28.864313	6626.000000	
28.888922	6482.000000	
28.913531	6547.000000	
28.938141	6328.000000	
28.962750	6230.000000	
28.987359	6172.000000	
29.011968	6188.000000	
29.036578	6061.000000	
29.061187	6040.000000	
29.085796	6252.000000	
29.110405	6292.000000	
29.135015	6302.000000	
29.159624	6397.000000	
29.184233	6209.000000	
29.208842	6184.000000	
29.233452	6150.000000	
29.258061	6011.000000	
29.282670	6127.000000	
29.307279	6020.000000	
29.331888	5978.000000	
29.356498	5876.000000	
29.381107	5859.000000	
29.405716	5871.000000	
29.430325	5877.000000	
29.454935	5973.000000	
29.479544	6010.000000	
29.504153	6291.000000	
29.528762	6658.000000	
29.553372	6504.000000	
29.577981	6769.000000	
29.602590	7239.000000	
29.627199	7318.000000	
29.651809	7739.000000	
29.676418	8101.000000	
29.701027	8444.000000	
29.725636	8564.000000	
29.750246	8549.000000	
29.774855	8314.000000	
29.799464	8389.000000	
29.824073	8154.000000	
29.848683	8056.000000	
29.873292	7532.000000	
29.897901	7311.000000	
29.922510	6974.000000	
29.947120	6577.000000	
29.971729	6345.000000	
29.996338	6148.000000	
30.020947	5902.000000	
30.045556	5817.000000	
30.070166	5635.000000	
30.094775	5602.000000	
30.119384	5435.000000	
30.143993	5417.000000	
30.168603	5436.000000	
30.193212	5312.000000	
30.217821	5305.000000	
30.242430	5067.000000	
30.267040	5174.000000	
30.291649	5095.000000	
30.316258	5248.000000	
30.340867	5112.000000	
30.365477	5055.000000	
30.390086	5147.000000	
30.414695	5018.000000	
30.439304	5138.000000	
30.463914	5269.000000	
30.488523	5244.000000	
30.513132	5064.000000	
30.537741	5234.000000	
30.562351	5037.000000	
30.586960	5076.000000	
30.611569	5191.000000	
30.636178	5019.000000	
30.660788	4962.000000	
30.685397	4828.000000	
30.710006	4783.000000	
30.734615	4838.000000	
30.759224	4777.000000	
30.783834	4650.000000	
30.808443	4517.000000	
30.833052	4597.000000	
30.857661	4701.000000	
30.882271	4558.000000	
30.906880	4703.000000	
30.931489	4649.000000	
30.956098	4626.000000	
30.980708	4663.000000	
31.005317	4531.000000	
31.029926	4593.000000	
31.054535	4570.000000	
31.079145	4533.000000	
31.103754	4638.000000	
31.128363	4455.000000	
31.152972	4668.000000	
31.177582	4560.000000	
31.202191	4548.000000	
31.226800	4447.000000	
31.251409	4641.000000	
31.276019	4491.000000	
31.300628	4507.000000	
31.325237	4631.000000	
31.349846	4769.000000	
31.374456	4607.000000	
31.399065	4830.000000	
31.423674	4743.000000	
31.448283	4907.000000	
31.472892	5013.000000	
31.497502	5149.000000	
31.522111	5311.000000	
31.546720	5352.000000	
31.571329	5827.000000	
31.595939	6301.000000	
31.620548	7073.000000	
31.645157	8435.000000	
31.669766	10985.000000	
31.694376	14984.000000	
31.718985	18801.000000	
31.743594	21694.000000	
31.768203	24229.000000	
31.792813	26154.000000	
31.817422	26830.000000	
31.842031	26217.000000	
31.866640	25306.000000	
31.891250	23708.000000	
31.915859	22259.000000	
31.940468	22392.000000	
31.965077	20215.000000	
31.989687	15384.000000	
32.014296	13142.000000	
32.038905	12344.000000	
32.063514	9801.000000	
32.088124	8153.000000	
32.112733	7329.000000	
32.137342	7025.000000	
32.161951	6425.000000	
32.186560	5945.000000	
32.211170	5898.000000	
32.235779	5511.000000	
32.260388	5278.000000	
32.284997	5112.000000	
32.309607	4987.000000	
32.334216	5022.000000	
32.358825	4777.000000	
32.383434	4564.000000	
32.408044	4651.000000	
32.432653	4598.000000	
32.457262	4638.000000	
32.481871	4634.000000	
32.506481	4616.000000	
32.531090	4527.000000	
32.555699	4617.000000	
32.580308	4643.000000	
32.604918	4615.000000	
32.629527	4717.000000	
32.654136	4793.000000	
32.678745	4950.000000	
32.703355	5261.000000	
32.727964	5547.000000	
32.752573	5921.000000	
32.777182	6608.000000	
32.801792	7604.000000	
32.826401	8673.000000	
32.851010	10292.000000	
32.875619	11565.000000	
32.900228	12584.000000	
32.924838	13856.000000	
32.949447	14438.000000	
32.974056	14642.000000	
32.998665	14707.000000	
33.023275	14670.000000	
33.047884	14459.000000	
33.072493	14625.000000	
33.097102	14750.000000	
33.121712	15931.000000	
33.146321	17281.000000	
33.170930	18679.000000	
33.195539	19512.000000	
33.220149	20659.000000	
33.244758	21304.000000	
33.269367	20900.000000	
33.293976	20527.000000	
33.318586	19672.000000	
33.343195	18096.000000	
33.367804	16780.000000	
33.392413	14984.000000	
33.417023	13595.000000	
33.441632	12012.000000	
33.466241	11154.000000	
33.490850	10311.000000	
33.515460	9564.000000	
33.540069	9451.000000	
33.564678	9714.000000	
33.589287	10228.000000	
33.613897	11210.000000	
33.638506	12132.000000	
33.663115	13373.000000	
33.687724	14859.000000	
33.712333	15586.000000	
33.736943	16503.000000	
33.761552	16891.000000	
33.786161	16680.000000	
33.810770	16072.000000	
33.835380	15297.000000	
33.859989	14949.000000	
33.884598	13521.000000	
33.909207	12251.000000	
33.933817	11095.000000	
33.958426	10221.000000	
33.983035	9002.000000	
34.007644	8031.000000	
34.032254	7491.000000	
34.056863	6671.000000	
34.081472	6148.000000	
34.106081	5858.000000	
34.130691	5482.000000	
34.155300	5293.000000	
34.179909	5171.000000	
34.204518	4881.000000	
34.229128	4701.000000	
34.253737	4674.000000	
34.278346	4647.000000	
34.302955	4675.000000	
34.327565	4574.000000	
34.352174	4586.000000	
34.376783	4554.000000	
34.401392	4722.000000	
34.426001	4612.000000	
34.450611	4726.000000	
34.475220	4817.000000	
34.499829	4844.000000	
34.524438	4712.000000	
34.549048	4695.000000	
34.573657	4764.000000	
34.598266	4497.000000	
34.622875	4499.000000	
34.647485	4415.000000	
34.672094	4458.000000	
34.696703	4305.000000	
34.721312	4126.000000	
34.745922	4122.000000	
34.770531	4066.000000	
34.795140	4195.000000	
34.819749	3981.000000	
34.844359	3950.000000	
34.868968	3892.000000	
34.893577	4045.000000	
34.918186	3902.000000	
34.942796	3869.000000	
34.967405	3980.000000	
34.992014	4042.000000	
35.016623	3936.000000	
35.041233	3914.000000	
35.065842	3937.000000	
35.090451	4026.000000	
35.115060	4016.000000	
35.139669	4058.000000	
35.164279	4275.000000	
35.188888	4256.000000	
35.213497	4612.000000	
35.238106	4628.000000	
35.262716	4898.000000	
35.287325	4925.000000	
35.311934	4996.000000	
35.336543	5119.000000	
35.361153	5191.000000	
35.385762	4955.000000	
35.410371	4929.000000	
35.434980	4970.000000	
35.459590	4748.000000	
35.484199	4542.000000	
35.508808	4508.000000	
35.533417	4423.000000	
35.558027	4282.000000	
35.582636	4174.000000	
35.607245	4265.000000	
35.631854	4377.000000	
35.656464	4295.000000	
35.681073	4294.000000	
35.705682	4552.000000	
35.730291	4820.000000	
35.754901	5355.000000	
35.779510	5943.000000	
35.804119	6499.000000	
35.828728	7082.000000	
35.853337	7534.000000	
35.877947	8055.000000	
35.902556	8334.000000	
35.927165	8662.000000	
35.951774	8668.000000	
35.976384	8472.000000	
36.000993	8202.000000	
36.025602	7798.000000	
36.050211	7319.000000	
36.074821	7040.000000	
36.099430	6371.000000	
36.124039	6057.000000	
36.148648	5670.000000	
36.173258	5203.000000	
36.197867	5165.000000	
36.222476	4894.000000	
36.247085	4693.000000	
36.271695	4552.000000	
36.296304	4694.000000	
36.320913	4515.000000	
36.345522	4646.000000	
36.370132	4732.000000	
36.394741	4854.000000	
36.419350	4913.000000	
36.443959	4968.000000	
36.468569	4996.000000	
36.493178	4765.000000	
36.517787	4880.000000	
36.542396	4867.000000	
36.567005	4749.000000	
36.591615	4673.000000	
36.616224	4712.000000	
36.640833	4673.000000	
36.665442	4674.000000	
36.690052	4718.000000	
36.714661	4819.000000	
36.739270	4908.000000	
36.763879	5189.000000	
36.788489	5414.000000	
36.813098	5725.000000	
36.837707	6241.000000	
36.862316	6835.000000	
36.886926	7718.000000	
36.911535	8465.000000	
36.936144	9264.000000	
36.960753	9838.000000	
36.985363	10300.000000	
37.009972	10423.000000	
37.034581	10508.000000	
37.059190	10408.000000	
37.083800	10006.000000	
37.108409	9471.000000	
37.133018	8881.000000	
37.157627	8403.000000	
37.182237	7842.000000	
37.206846	7377.000000	
37.231455	7109.000000	
37.256064	6736.000000	
37.280673	6699.000000	
37.305283	6717.000000	
37.329892	6801.000000	
37.354501	7358.000000	
37.379110	7931.000000	
37.403720	8927.000000	
37.428329	9763.000000	
37.452938	10490.000000	
37.477547	11100.000000	
37.502157	11485.000000	
37.526766	11513.000000	
37.551375	11590.000000	
37.575984	11414.000000	
37.600594	10942.000000	
37.625203	10202.000000	
37.649812	9597.000000	
37.674421	8835.000000	
37.699031	8090.000000	
37.723640	7398.000000	
37.748249	6952.000000	
37.772858	6397.000000	
37.797468	5943.000000	
37.822077	5547.000000	
37.846686	5390.000000	
37.871295	5211.000000	
37.895905	5096.000000	
37.920514	4994.000000	
37.945123	4711.000000	
37.969732	4727.000000	
37.994341	4602.000000	
38.018951	4595.000000	
38.043560	4523.000000	
38.068169	4487.000000	
38.092778	4178.000000	
38.117388	4275.000000	
38.141997	4393.000000	
38.166606	4293.000000	
38.191215	4255.000000	
38.215825	4375.000000	
38.240434	4606.000000	
38.265043	4836.000000	
38.289652	5318.000000	
38.314262	5939.000000	
38.338871	6696.000000	
38.363480	7085.000000	
38.388089	7757.000000	
38.412699	8137.000000	
38.437308	8904.000000	
38.461917	9020.000000	
38.486526	9117.000000	
38.511136	9063.000000	
38.535745	8882.000000	
38.560354	8509.000000	
38.584963	8180.000000	
38.609573	7629.000000	
38.634182	7257.000000	
38.658791	6513.000000	
38.683400	6150.000000	
38.708010	5747.000000	
38.732619	5540.000000	
38.757228	5231.000000	
38.781837	4817.000000	
38.806446	4777.000000	
38.831056	4568.000000	
38.855665	4375.000000	
38.880274	4375.000000	
38.904883	4081.000000	
38.929493	4149.000000	
38.954102	4200.000000	
38.978711	4048.000000	
39.003320	4180.000000	
39.027930	4149.000000	
39.052539	4053.000000	
39.077148	4133.000000	
39.101757	4242.000000	
39.126367	4180.000000	
39.150976	4328.000000	
39.175585	4415.000000	
39.200194	4540.000000	
39.224804	4529.000000	
39.249413	4574.000000	
39.274022	4575.000000	
39.298631	4858.000000	
39.323241	4750.000000	
39.347850	4904.000000	
39.372459	5155.000000	
39.397068	5256.000000	
39.421678	5659.000000	
39.446287	6113.000000	
39.470896	6992.000000	
39.495505	7806.000000	
39.520114	9215.000000	
39.544724	10137.000000	
39.569333	11141.000000	
39.593942	11687.000000	
39.618551	12330.000000	
39.643161	12568.000000	
39.667770	12575.000000	
39.692379	12047.000000	
39.716988	11630.000000	
39.741598	10770.000000	
39.766207	10251.000000	
39.790816	9172.000000	
39.815425	8447.000000	
39.840035	7919.000000	
39.864644	7100.000000	
39.889253	6475.000000	
39.913862	6052.000000	
39.938472	5729.000000	
39.963081	5380.000000	
39.987690	5037.000000	
40.012299	4914.000000	
40.036909	4801.000000	
40.061518	4792.000000	
40.086127	4781.000000	
40.110736	4708.000000	
40.135346	4698.000000	
40.159955	4500.000000	
40.184564	4637.000000	
40.209173	4566.000000	
40.233782	4665.000000	
40.258392	4680.000000	
40.283001	4772.000000	
40.307610	4901.000000	
40.332219	5246.000000	
40.356829	5629.000000	
40.381438	6082.000000	
40.406047	6734.000000	
40.430656	7494.000000	
40.455266	8414.000000	
40.479875	9112.000000	
40.504484	10493.000000	
40.529093	11322.000000	
40.553703	12444.000000	
40.578312	12640.000000	
40.602921	13003.000000	
40.627530	12892.000000	
40.652140	13063.000000	
40.676749	12477.000000	
40.701358	11719.000000	
40.725967	10820.000000	
40.750577	9988.000000	
40.775186	8979.000000	
40.799795	8209.000000	
40.824404	7559.000000	
40.849014	6993.000000	
40.873623	6405.000000	
40.898232	5814.000000	
40.922841	5557.000000	
40.947450	5449.000000	
40.972060	5300.000000	
40.996669	5501.000000	
41.021278	5693.000000	
41.045887	6294.000000	
41.070497	6833.000000	
41.095106	7438.000000	
41.119715	7979.000000	
41.144324	8486.000000	
41.168934	8866.000000	
41.193543	9080.000000	
41.218152	8922.000000	
41.242761	8992.000000	
41.267371	8524.000000	
41.291980	8019.000000	
41.316589	7520.000000	
41.341198	7094.000000	
41.365808	6499.000000	
41.390417	5989.000000	
41.415026	5605.000000	
41.439635	5387.000000	
41.464245	5093.000000	
41.488854	4905.000000	
41.513463	4782.000000	
41.538072	4823.000000	
41.562682	4870.000000	
41.587291	5111.000000	
41.611900	5548.000000	
41.636509	5681.000000	
41.661118	6099.000000	
41.685728	6349.000000	
41.710337	6632.000000	
41.734946	6822.000000	
41.759555	6656.000000	
41.784165	6687.000000	
41.808774	6729.000000	
41.833383	6430.000000	
41.857992	6085.000000	
41.882602	5761.000000	
41.907211	5478.000000	
41.931820	5167.000000	
41.956429	4906.000000	
41.981039	4681.000000	
42.005648	4486.000000	
42.030257	4361.000000	
42.054866	4127.000000	
42.079476	4105.000000	
42.104085	3861.000000	
42.128694	3905.000000	
42.153303	3839.000000	
42.177913	3800.000000	
42.202522	3764.000000	
42.227131	3654.000000	
42.251740	3654.000000	
42.276350	3541.000000	
42.300959	3449.000000	
42.325568	3555.000000	
42.350177	3553.000000	
42.374786	3646.000000	
42.399396	3629.000000	
42.424005	3597.000000	
42.448614	3713.000000	
42.473223	3637.000000	
42.497833	3783.000000	
42.522442	3677.000000	
42.547051	3819.000000	
42.571660	3835.000000	
42.596270	3846.000000	
42.620879	3703.000000	
42.645488	3830.000000	
42.670097	3767.000000	
42.694707	3685.000000	
42.719316	3756.000000	
42.743925	3679.000000	
42.768534	3581.000000	
42.793144	3740.000000	
42.817753	3618.000000	
42.842362	3776.000000	
42.866971	3684.000000	
42.891581	3886.000000	
42.916190	3889.000000	
42.940799	3978.000000	
42.965408	4174.000000	
42.990018	4366.000000	
43.014627	4787.000000	
43.039236	4946.000000	
43.063845	5068.000000	
43.088455	5242.000000	
43.113064	5362.000000	
43.137673	5371.000000	
43.162282	5577.000000	
43.186891	5500.000000	
43.211501	5386.000000	
43.236110	5080.000000	
43.260719	4987.000000	
43.285328	4927.000000	
43.309938	4746.000000	
43.334547	4413.000000	
43.359156	4305.000000	
43.383765	4155.000000	
43.408375	4070.000000	
43.432984	3879.000000	
43.457593	3776.000000	
43.482202	3838.000000	
43.506812	3780.000000	
43.531421	3603.000000	
43.556030	3646.000000	
43.580639	3670.000000	
43.605249	3584.000000	
43.629858	3728.000000	
43.654467	3597.000000	
43.679076	3755.000000	
43.703686	3640.000000	
43.728295	3817.000000	
43.752904	3816.000000	
43.777513	3836.000000	
43.802123	3964.000000	
43.826732	3921.000000	
43.851341	3974.000000	
43.875950	3895.000000	
43.900559	3833.000000	
43.925169	3819.000000	
43.949778	3892.000000	
43.974387	3781.000000	
43.998996	3645.000000	
44.023606	3603.000000	
44.048215	3535.000000	
44.072824	3541.000000	
44.097433	3670.000000	
44.122043	3509.000000	
44.146652	3528.000000	
44.171261	3507.000000	
44.195870	3508.000000	
44.220480	3438.000000	
44.245089	3658.000000	
44.269698	3557.000000	
44.294307	3707.000000	
44.318917	3725.000000	
44.343526	3947.000000	
44.368135	4077.000000	
44.392744	4298.000000	
44.417354	4505.000000	
44.441963	4380.000000	
44.466572	4611.000000	
44.491181	4519.000000	
44.515791	4678.000000	
44.540400	4455.000000	
44.565009	4569.000000	
44.589618	4410.000000	
44.614227	4177.000000	
44.638837	4168.000000	
44.663446	3934.000000	
44.688055	3864.000000	
44.712664	3870.000000	
44.737274	3783.000000	
44.761883	3556.000000	
44.786492	3687.000000	
44.811101	3526.000000	
44.835711	3544.000000	
44.860320	3416.000000	
44.884929	3363.000000	
44.909538	3306.000000	
44.934148	3263.000000	
44.958757	3438.000000	
44.983366	3317.000000	
45.007975	3334.000000	
45.032585	3407.000000	
45.057194	3374.000000	
45.081803	3449.000000	
45.106412	3433.000000	
45.131022	3509.000000	
45.155631	3383.000000	
45.180240	3630.000000	
45.204849	3641.000000	
45.229459	3675.000000	
45.254068	3725.000000	
45.278677	3656.000000	
45.303286	3863.000000	
45.327895	4162.000000	
45.352505	4389.000000	
45.377114	4901.000000	
45.401723	5934.000000	
45.426332	7438.000000	
45.450942	8790.000000	
45.475551	9805.000000	
45.500160	10667.000000	
45.524769	11222.000000	
45.549379	11612.000000	
45.573988	11950.000000	
45.598597	11728.000000	
45.623206	11201.000000	
45.647816	10494.000000	
45.672425	9480.000000	
45.697034	8448.000000	
45.721643	7672.000000	
45.746253	6948.000000	
45.770862	6387.000000	
45.795471	5862.000000	
45.820080	5648.000000	
45.844690	5092.000000	
45.869299	4500.000000	
45.893908	4290.000000	
45.918517	4119.000000	
45.943127	4084.000000	
45.967736	3802.000000	
45.992345	3818.000000	
46.016954	3678.000000	
46.041563	3563.000000	
46.066173	3541.000000	
46.090782	3672.000000	
46.115391	3793.000000	
46.140000	3843.000000	
46.164610	3760.000000	
46.189219	3854.000000	
46.213828	3870.000000	
46.238437	3773.000000	
46.263047	3943.000000	
46.287656	3819.000000	
46.312265	3902.000000	
46.336874	4081.000000	
46.361484	4170.000000	
46.386093	4204.000000	
46.410702	4372.000000	
46.435311	4492.000000	
46.459921	4477.000000	
46.484530	4686.000000	
46.509139	4577.000000	
46.533748	4666.000000	
46.558358	4524.000000	
46.582967	4375.000000	
46.607576	4522.000000	
46.632185	4454.000000	
46.656795	4188.000000	
46.681404	4143.000000	
46.706013	3950.000000	
46.730622	3997.000000	
46.755231	3987.000000	
46.779841	3895.000000	
46.804450	3888.000000	
46.829059	3896.000000	
46.853668	3880.000000	
46.878278	4053.000000	
46.902887	4031.000000	
46.927496	3904.000000	
46.952105	3897.000000	
46.976715	3888.000000	
47.001324	4068.000000	
47.025933	3962.000000	
47.050542	4028.000000	
47.075152	4040.000000	
47.099761	3950.000000	
47.124370	4082.000000	
47.148979	3859.000000	
47.173589	4110.000000	
47.198198	4011.000000	
47.222807	3891.000000	
47.247416	3889.000000	
47.272026	3882.000000	
47.296635	3766.000000	
47.321244	3758.000000	
47.345853	3578.000000	
47.370463	3510.000000	
47.395072	3463.000000	
47.419681	3420.000000	
47.444290	3312.000000	
47.468899	3309.000000	
47.493509	3362.000000	
47.518118	3335.000000	
47.542727	3324.000000	
47.567336	3141.000000	
47.591946	3269.000000	
47.616555	3418.000000	
47.641164	3446.000000	
47.665773	3557.000000	
47.690383	3499.000000	
47.714992	3645.000000	
47.739601	3733.000000	
47.764210	3855.000000	
47.788820	3883.000000	
47.813429	3939.000000	
47.838038	3973.000000	
47.862647	3958.000000	
47.887257	3932.000000	
47.911866	3725.000000	
47.936475	3657.000000	
47.961084	3673.000000	
47.985694	3527.000000	
48.010303	3438.000000	
48.034912	3458.000000	
48.059521	3383.000000	
48.084131	3349.000000	
48.108740	3214.000000	
48.133349	3263.000000	
48.157958	3063.000000	
48.182568	3315.000000	
48.207177	3150.000000	
48.231786	3282.000000	
48.256395	3292.000000	
48.281004	3165.000000	
48.305614	3161.000000	
48.330223	3204.000000	
48.354832	3270.000000	
48.379441	3256.000000	
48.404051	3353.000000	
48.428660	3316.000000	
48.453269	3300.000000	
48.477878	3419.000000	
48.502488	3308.000000	
48.527097	3483.000000	
48.551706	3521.000000	
48.576315	3488.000000	
48.600925	3655.000000	
48.625534	3592.000000	
48.650143	3585.000000	
48.674752	3756.000000	
48.699362	3776.000000	
48.723971	4006.000000	
48.748580	4155.000000	
48.773189	4223.000000	
48.797799	4549.000000	
48.822408	4887.000000	
48.847017	5297.000000	
48.871626	5533.000000	
48.896236	5868.000000	
48.920845	5979.000000	
48.945454	6234.000000	
48.970063	6381.000000	
48.994672	6303.000000	
49.019282	6423.000000	
49.043891	6191.000000	
49.068500	5877.000000	
49.093109	5791.000000	
49.117719	5423.000000	
49.142328	5268.000000	
49.166937	4897.000000	
49.191546	4848.000000	
49.216156	4540.000000	
49.240765	4340.000000	
49.265374	4206.000000	
49.289983	4394.000000	
49.314593	4197.000000	
49.339202	4205.000000	
49.363811	4286.000000	
49.388420	4146.000000	
49.413030	4176.000000	
49.437639	4095.000000	
49.462248	4096.000000	
49.486857	4132.000000	
49.511467	4120.000000	
49.536076	4311.000000	
49.560685	4066.000000	
49.585294	4196.000000	
49.609904	4343.000000	
49.634513	4437.000000	
49.659122	4543.000000	
49.683731	4881.000000	
49.708340	5460.000000	
49.732950	6047.000000	
49.757559	7103.000000	
49.782168	8129.000000	
49.806777	9423.000000	
49.831387	10049.000000	
49.855996	10914.000000	
49.880605	11574.000000	
49.905214	12464.000000	
49.929824	12917.000000	
49.954433	13367.000000	
49.979042	13157.000000	
50.003651	13339.000000	
50.028261	12787.000000	
50.052870	12241.000000	
50.077479	11713.000000	
50.102088	11121.000000	
50.126698	10222.000000	
50.151307	9747.000000	
50.175916	8854.000000	
50.200525	8698.000000	
50.225135	8133.000000	
50.249744	7862.000000	
50.274353	7188.000000	
50.298962	6863.000000	
50.323572	6360.000000	
50.348181	6411.000000	
50.372790	6081.000000	
50.397399	5835.000000	
50.422008	5445.000000	
50.446618	5263.000000	
50.471227	4839.000000	
50.495836	4852.000000	
50.520445	4585.000000	
50.545055	4399.000000	
50.569664	4258.000000	
50.594273	3964.000000	
50.618882	3915.000000	
50.643492	3798.000000	
50.668101	3788.000000	
50.692710	3540.000000	
50.717319	3539.000000	
50.741929	3401.000000	
50.766538	3392.000000	
50.791147	3317.000000	
50.815756	3314.000000	
50.840366	3323.000000	
50.864975	3295.000000	
50.889584	3250.000000	
50.914193	3308.000000	
50.938803	3228.000000	
50.963412	3290.000000	
50.988021	3252.000000	
51.012630	3399.000000	
51.037240	3316.000000	
51.061849	3474.000000	
51.086458	3547.000000	
51.111067	3709.000000	
51.135676	3738.000000	
51.160286	3829.000000	
51.184895	4091.000000	
51.209504	4297.000000	
51.234113	4630.000000	
51.258723	4868.000000	
51.283332	5050.000000	
51.307941	5329.000000	
51.332550	5549.000000	
51.357160	5623.000000	
51.381769	5512.000000	
51.406378	5772.000000	
51.430987	5636.000000	
51.455597	5609.000000	
51.480206	5743.000000	
51.504815	5717.000000	
51.529424	5664.000000	
51.554034	5717.000000	
51.578643	5865.000000	
51.603252	5993.000000	
51.627861	5772.000000	
51.652471	5797.000000	
51.677080	5655.000000	
51.701689	5760.000000	
51.726298	5540.000000	
51.750908	5285.000000	
51.775517	5063.000000	
51.800126	4886.000000	
51.824735	4808.000000	
51.849344	4558.000000	
51.873954	4314.000000	
51.898563	4215.000000	
51.923172	4197.000000	
51.947781	4088.000000	
51.972391	4107.000000	
51.997000	4365.000000	
52.021609	4318.000000	
52.046218	4404.000000	
52.070828	4783.000000	
52.095437	4855.000000	
52.120046	4995.000000	
52.144655	4987.000000	
52.169265	4888.000000	
52.193874	4860.000000	
52.218483	4850.000000	
52.243092	4995.000000	
52.267702	4777.000000	
52.292311	4572.000000	
52.316920	4557.000000	
52.341529	4419.000000	
52.366139	4143.000000	
52.390748	4004.000000	
52.415357	3848.000000	
52.439966	3772.000000	
52.464576	3704.000000	
52.489185	3525.000000	
52.513794	3337.000000	
52.538403	3415.000000	
52.563013	3337.000000	
52.587622	3222.000000	
52.612231	3197.000000	
52.636840	3235.000000	
52.661449	3151.000000	
52.686059	3202.000000	
52.710668	3264.000000	
52.735277	3176.000000	
52.759886	3179.000000	
52.784496	3086.000000	
52.809105	3134.000000	
52.833714	3087.000000	
52.858323	3072.000000	
52.882933	3207.000000	
52.907542	3159.000000	
52.932151	3187.000000	
52.956760	3205.000000	
52.981370	3273.000000	
53.005979	3213.000000	
53.030588	3072.000000	
53.055197	3207.000000	
53.079807	3283.000000	
53.104416	3194.000000	
53.129025	3309.000000	
53.153634	3155.000000	
53.178244	3149.000000	
53.202853	3174.000000	
53.227462	3056.000000	
53.252071	3215.000000	
53.276681	2997.000000	
53.301290	3062.000000	
53.325899	3090.000000	
53.350508	2959.000000	
53.375117	3036.000000	
53.399727	3034.000000	
53.424336	3061.000000	
53.448945	3001.000000	
53.473554	3201.000000	
53.498164	3041.000000	
53.522773	3127.000000	
53.547382	3072.000000	
53.571991	3150.000000	
53.596601	3072.000000	
53.621210	3127.000000	
53.645819	3043.000000	
53.670428	3211.000000	
53.695038	3080.000000	
53.719647	3244.000000	
53.744256	3291.000000	
53.768865	3340.000000	
53.793475	3393.000000	
53.818084	3639.000000	
53.842693	3528.000000	
53.867302	3704.000000	
53.891912	3748.000000	
53.916521	3736.000000	
53.941130	3780.000000	
53.965739	3724.000000	
53.990349	3666.000000	
54.014958	3684.000000	
54.039567	3656.000000	
54.064176	3619.000000	
54.088785	3466.000000	
54.113395	3453.000000	
54.138004	3385.000000	
54.162613	3275.000000	
54.187222	3181.000000	
54.211832	3119.000000	
54.236441	3228.000000	
54.261050	3206.000000	
54.285659	3245.000000	
54.310269	3337.000000	
54.334878	3227.000000	
54.359487	3203.000000	
54.384096	3288.000000	
54.408706	3290.000000	
54.433315	3329.000000	
54.457924	3323.000000	
54.482533	3218.000000	
54.507143	3183.000000	
54.531752	3223.000000	
54.556361	3170.000000	
54.580970	3061.000000	
54.605580	2941.000000	
54.630189	2973.000000	
54.654798	3069.000000	
54.679407	2823.000000	
54.704017	2870.000000	
54.728626	2789.000000	
54.753235	2791.000000	
54.777844	2726.000000	
54.802453	2721.000000	
54.827063	2635.000000	
54.851672	2716.000000	
54.876281	2836.000000	
54.900890	2727.000000	
54.925500	2629.000000	
54.950109	2743.000000	
54.974718	2756.000000	
54.999327	2739.000000	
55.023937	2779.000000	
55.048546	2818.000000	
55.073155	2731.000000	
55.097764	2768.000000	
55.122374	2673.000000	
55.146983	2687.000000	
55.171592	2742.000000	
55.196201	2693.000000	
55.220811	2695.000000	
55.245420	2724.000000	
55.270029	2751.000000	
55.294638	2783.000000	
55.319248	2868.000000	
55.343857	2765.000000	
55.368466	2748.000000	
55.393075	2758.000000	
55.417685	2853.000000	
55.442294	2910.000000	
55.466903	2942.000000	
55.491512	3006.000000	
55.516121	3117.000000	
55.540731	3089.000000	
55.565340	3148.000000	
55.589949	3299.000000	
55.614558	3489.000000	
55.639168	3624.000000	
55.663777	3948.000000	
55.688386	4223.000000	
55.712995	4529.000000	
55.737605	4860.000000	
55.762214	5059.000000	
55.786823	5087.000000	
55.811432	5075.000000	
55.836042	5152.000000	
55.860651	4980.000000	
55.885260	4960.000000	
55.909869	4745.000000	
55.934479	4529.000000	
55.959088	4403.000000	
55.983697	4165.000000	
56.008306	3854.000000	
56.032916	3703.000000	
56.057525	3508.000000	
56.082134	3393.000000	
56.106743	3206.000000	
56.131353	3146.000000	
56.155962	3080.000000	
56.180571	3045.000000	
56.205180	3031.000000	
56.229789	3087.000000	
56.254399	3068.000000	
56.279008	3148.000000	
56.303617	3112.000000	
56.328226	3171.000000	
56.352836	3209.000000	
56.377445	3260.000000	
56.402054	3410.000000	
56.426663	3841.000000	
56.451273	4140.000000	
56.475882	4598.000000	
56.500491	4856.000000	
56.525100	4884.000000	
56.549710	5041.000000	
56.574319	5118.000000	
56.598928	5137.000000	
56.623537	5219.000000	
56.648147	5176.000000	
56.672756	4893.000000	
56.697365	4902.000000	
56.721974	4767.000000	
56.746584	4794.000000	
56.771193	4771.000000	
56.795802	4793.000000	
56.820411	4948.000000	
56.845021	5154.000000	
56.869630	5186.000000	
56.894239	5266.000000	
56.918848	5286.000000	
56.943457	5147.000000	
56.968067	5221.000000	
56.992676	4992.000000	
57.017285	4910.000000	
57.041894	4738.000000	
57.066504	4471.000000	
57.091113	4199.000000	
57.115722	3922.000000	
57.140331	3735.000000	
57.164941	3512.000000	
57.189550	3397.000000	
57.214159	3153.000000	
57.238768	3091.000000	
57.263378	3025.000000	
57.287987	3016.000000	
57.312596	2755.000000	
57.337205	2832.000000	
57.361815	2684.000000	
57.386424	2760.000000	
57.411033	2584.000000	
57.435642	2694.000000	
57.460252	2597.000000	
57.484861	2630.000000	
57.509470	2749.000000	
57.534079	2695.000000	
57.558689	2618.000000	
57.583298	2710.000000	
57.607907	2672.000000	
57.632516	2656.000000	
57.657126	2612.000000	
57.681735	2604.000000	
57.706344	2657.000000	
57.730953	2689.000000	
57.755562	2613.000000	
57.780172	2676.000000	
57.804781	2757.000000	
57.829390	2678.000000	
57.853999	2770.000000	
57.878609	2799.000000	
57.903218	2744.000000	
57.927827	2764.000000	
57.952436	2757.000000	
57.977046	2817.000000	
58.001655	2887.000000	
58.026264	2949.000000	
58.050873	3182.000000	
58.075483	3232.000000	
58.100092	3395.000000	
58.124701	3679.000000	
58.149310	3728.000000	
58.173920	3895.000000	
58.198529	4066.000000	
58.223138	4171.000000	
58.247747	4189.000000	
58.272357	4293.000000	
58.296966	4364.000000	
58.321575	4156.000000	
58.346184	4058.000000	
58.370794	3881.000000	
58.395403	3926.000000	
58.420012	3928.000000	
58.444621	3648.000000	
58.469230	3618.000000	
58.493840	3448.000000	
58.518449	3315.000000	
58.543058	3281.000000	
58.567667	3269.000000	
58.592277	3131.000000	
58.616886	3045.000000	
58.641495	3149.000000	
58.666104	3205.000000	
58.690714	3263.000000	
58.715323	3356.000000	
58.739932	3326.000000	
58.764541	3591.000000	
58.789151	3572.000000	
58.813760	3672.000000	
58.838369	3961.000000	
58.862978	3932.000000	
58.887588	4019.000000	
58.912197	4269.000000	
58.936806	4080.000000	
58.961415	4212.000000	
58.986025	4247.000000	
59.010634	4127.000000	
59.035243	4140.000000	
59.059852	3963.000000	
59.084462	3908.000000	
59.109071	3915.000000	
59.133680	3665.000000	
59.158289	3572.000000	
59.182898	3458.000000	
59.207508	3377.000000	
59.232117	3209.000000	
59.256726	3108.000000	
59.281335	2989.000000	
59.305945	2812.000000	
59.330554	2701.000000	
59.355163	2661.000000	
59.379772	2643.000000	
59.404382	2521.000000	
59.428991	2507.000000	
59.453600	2486.000000	
59.478209	2402.000000	
59.502819	2402.000000	
59.527428	2449.000000	
59.552037	2428.000000	
59.576646	2409.000000	
59.601256	2434.000000	
59.625865	2408.000000	
59.650474	2336.000000	
59.675083	2297.000000	
59.699693	2426.000000	
59.724302	2418.000000	
59.748911	2369.000000	
59.773520	2400.000000	
59.798130	2346.000000	
59.822739	2444.000000	
59.847348	2440.000000	
59.871957	2464.000000	
59.896566	2508.000000	
59.921176	2535.000000	
59.945785	2605.000000	
59.970394	2615.000000	
59.995003	2768.000000	
