;content of C:\2023\IFUNAM\Dr-IVAN\Ivan-1-hora\TCQD.raw - (Diffrac Plus V4 file)
_FILEVERSION = 3
_SAMPLE = TCQD
_+SAMPLE
_USER = Lab Manager
_GONIOMETER_CODE = 21
_STAGE_CODE = 7
; Goniometer : D8 theta/theta, stage : Chi drive
_SAMPLE_CHANGER_CODE = 0
_ATTACHMENTS_CODE = 0
_GONIOMETER_RADIUS = 280
_SOLLER_SLITS = 2
_FIXED_DETSLIT = 6
_MONOCHROMATOR = 0
; Incident beam monochromator : None
_BETA_FILTER = N
_ANALYZER_CODE = 0
; Received beam analyzer : None
_DATEMEASURED = 23-May-2023 17:09:42
_RUNTIME = 3670.608
_WL_UNIT = A
_WL1 = 1.540600
_WL2 = 1.544390
_WL3 = 1.392220
_WLRATIO = 0.500000
_ANODE = Cu
_V4_INF_USER = Lab Manager
_V4_INF_SAMPLEID = TCQD
_V4_INF_CREATOR = BrmlToV4Converter
_V4_INF_CREATOR_VERSION = 7.3.1.0

; Data for range 1
_DRIVE = COUPLED
_STEPTIME = 288
_STEPSIZE = 0.024609
_STEPMODE = C
_START = 3.000000
_THETA = 1.500000
_2THETA = 3.000000
_PHI = 351.703125
_DIVERGENCE = 0.379996
_DETECTORSLIT = out
_TIMESTARTED = 0
_ROTATION_SPEED = 15
_KV = 40
_MA = 35
_RANGE_WL = 1.541800
_3DPLANE = 0
_V4_PSD2THETA = 9999.000000
_V4_PSDCHANNEL1 = 0
_V4_PSDAPERTURE = 2.953109
_V4_PSDTYPE = 5
_V4_PSDFIXED = 0
_V4_COUNTERS_MASK = 1
_V4_DRIVES_MASK = 0
_V4_ENCODERS_MASK = 0
_2THETACOUNTS = 1
; 2THETA	Cnt2_D1	
3.000000	1297.000000	
3.024609	1293.000000	
3.049218	1247.000000	
3.073828	1267.000000	
3.098437	1292.000000	
3.123046	1186.000000	
3.147655	1207.000000	
3.172265	1194.000000	
3.196874	1175.000000	
3.221483	1138.000000	
3.246092	1131.000000	
3.270702	1101.000000	
3.295311	1055.000000	
3.319920	1059.000000	
3.344529	1035.000000	
3.369139	1029.000000	
3.393748	987.000000	
3.418357	987.000000	
3.442966	998.000000	
3.467576	989.000000	
3.492185	954.000000	
3.516794	960.000000	
3.541403	929.000000	
3.566013	995.000000	
3.590622	862.000000	
3.615231	954.000000	
3.639840	919.000000	
3.664450	897.000000	
3.689059	893.000000	
3.713668	868.000000	
3.738277	878.000000	
3.762886	799.000000	
3.787496	865.000000	
3.812105	835.000000	
3.836714	819.000000	
3.861323	835.000000	
3.885933	841.000000	
3.910542	831.000000	
3.935151	806.000000	
3.959760	828.000000	
3.984370	757.000000	
4.008979	773.000000	
4.033588	764.000000	
4.058197	767.000000	
4.082807	722.000000	
4.107416	729.000000	
4.132025	735.000000	
4.156634	720.000000	
4.181244	684.000000	
4.205853	727.000000	
4.230462	675.000000	
4.255071	649.000000	
4.279681	697.000000	
4.304290	666.000000	
4.328899	656.000000	
4.353508	677.000000	
4.378118	651.000000	
4.402727	664.000000	
4.427336	612.000000	
4.451945	661.000000	
4.476554	604.000000	
4.501164	654.000000	
4.525773	639.000000	
4.550382	606.000000	
4.574991	613.000000	
4.599601	611.000000	
4.624210	597.000000	
4.648819	584.000000	
4.673428	614.000000	
4.698038	565.000000	
4.722647	589.000000	
4.747256	584.000000	
4.771865	585.000000	
4.796475	590.000000	
4.821084	523.000000	
4.845693	573.000000	
4.870302	526.000000	
4.894912	557.000000	
4.919521	530.000000	
4.944130	580.000000	
4.968739	517.000000	
4.993349	537.000000	
5.017958	513.000000	
5.042567	564.000000	
5.067176	522.000000	
5.091786	520.000000	
5.116395	507.000000	
5.141004	522.000000	
5.165613	519.000000	
5.190222	527.000000	
5.214832	492.000000	
5.239441	522.000000	
5.264050	473.000000	
5.288659	475.000000	
5.313269	502.000000	
5.337878	476.000000	
5.362487	511.000000	
5.387096	533.000000	
5.411706	515.000000	
5.436315	514.000000	
5.460924	467.000000	
5.485533	468.000000	
5.510143	468.000000	
5.534752	483.000000	
5.559361	457.000000	
5.583970	485.000000	
5.608580	480.000000	
5.633189	491.000000	
5.657798	441.000000	
5.682407	463.000000	
5.707017	453.000000	
5.731626	431.000000	
5.756235	461.000000	
5.780844	408.000000	
5.805454	428.000000	
5.830063	410.000000	
5.854672	439.000000	
5.879281	509.000000	
5.903891	441.000000	
5.928500	462.000000	
5.953109	473.000000	
5.977718	484.000000	
6.002327	411.000000	
6.026937	416.000000	
6.051546	417.000000	
6.076155	455.000000	
6.100764	391.000000	
6.125374	428.000000	
6.149983	487.000000	
6.174592	478.000000	
6.199201	459.000000	
6.223811	415.000000	
6.248420	441.000000	
6.273029	405.000000	
6.297638	430.000000	
6.322248	429.000000	
6.346857	401.000000	
6.371466	413.000000	
6.396075	421.000000	
6.420685	441.000000	
6.445294	416.000000	
6.469903	435.000000	
6.494512	459.000000	
6.519122	457.000000	
6.543731	391.000000	
6.568340	424.000000	
6.592949	439.000000	
6.617559	423.000000	
6.642168	453.000000	
6.666777	417.000000	
6.691386	454.000000	
6.715995	431.000000	
6.740605	410.000000	
6.765214	425.000000	
6.789823	431.000000	
6.814432	436.000000	
6.839042	420.000000	
6.863651	465.000000	
6.888260	435.000000	
6.912869	407.000000	
6.937479	452.000000	
6.962088	426.000000	
6.986697	424.000000	
7.011306	398.000000	
7.035916	449.000000	
7.060525	475.000000	
7.085134	475.000000	
7.109743	454.000000	
7.134353	419.000000	
7.158962	434.000000	
7.183571	439.000000	
7.208180	418.000000	
7.232790	399.000000	
7.257399	429.000000	
7.282008	476.000000	
7.306617	429.000000	
7.331227	473.000000	
7.355836	476.000000	
7.380445	446.000000	
7.405054	499.000000	
7.429663	428.000000	
7.454273	445.000000	
7.478882	417.000000	
7.503491	444.000000	
7.528100	480.000000	
7.552710	458.000000	
7.577319	436.000000	
7.601928	460.000000	
7.626537	424.000000	
7.651147	529.000000	
7.675756	464.000000	
7.700365	467.000000	
7.724974	456.000000	
7.749584	464.000000	
7.774193	470.000000	
7.798802	499.000000	
7.823411	501.000000	
7.848021	479.000000	
7.872630	500.000000	
7.897239	466.000000	
7.921848	523.000000	
7.946458	484.000000	
7.971067	494.000000	
7.995676	463.000000	
8.020285	478.000000	
8.044895	497.000000	
8.069504	506.000000	
8.094113	493.000000	
8.118722	513.000000	
8.143331	545.000000	
8.167941	525.000000	
8.192550	560.000000	
8.217159	496.000000	
8.241768	518.000000	
8.266378	543.000000	
8.290987	569.000000	
8.315596	576.000000	
8.340205	514.000000	
8.364815	557.000000	
8.389424	582.000000	
8.414033	533.000000	
8.438642	550.000000	
8.463252	561.000000	
8.487861	582.000000	
8.512470	561.000000	
8.537079	581.000000	
8.561689	590.000000	
8.586298	561.000000	
8.610907	575.000000	
8.635516	605.000000	
8.660126	621.000000	
8.684735	598.000000	
8.709344	613.000000	
8.733953	609.000000	
8.758563	636.000000	
8.783172	653.000000	
8.807781	595.000000	
8.832390	592.000000	
8.856999	610.000000	
8.881609	623.000000	
8.906218	626.000000	
8.930827	654.000000	
8.955436	592.000000	
8.980046	729.000000	
9.004655	611.000000	
9.029264	674.000000	
9.053873	655.000000	
9.078483	690.000000	
9.103092	686.000000	
9.127701	638.000000	
9.152310	656.000000	
9.176920	643.000000	
9.201529	652.000000	
9.226138	656.000000	
9.250747	672.000000	
9.275357	684.000000	
9.299966	661.000000	
9.324575	666.000000	
9.349184	700.000000	
9.373794	727.000000	
9.398403	729.000000	
9.423012	701.000000	
9.447621	692.000000	
9.472231	716.000000	
9.496840	686.000000	
9.521449	726.000000	
9.546058	663.000000	
9.570667	670.000000	
9.595277	667.000000	
9.619886	695.000000	
9.644495	740.000000	
9.669104	699.000000	
9.693714	723.000000	
9.718323	703.000000	
9.742932	690.000000	
9.767541	670.000000	
9.792151	754.000000	
9.816760	696.000000	
9.841369	718.000000	
9.865978	681.000000	
9.890588	741.000000	
9.915197	735.000000	
9.939806	711.000000	
9.964415	764.000000	
9.989025	696.000000	
10.013634	777.000000	
10.038243	786.000000	
10.062852	783.000000	
10.087462	796.000000	
10.112071	793.000000	
10.136680	720.000000	
10.161289	718.000000	
10.185899	735.000000	
10.210508	740.000000	
10.235117	756.000000	
10.259726	735.000000	
10.284336	756.000000	
10.308945	744.000000	
10.333554	734.000000	
10.358163	771.000000	
10.382772	748.000000	
10.407382	743.000000	
10.431991	770.000000	
10.456600	746.000000	
10.481209	761.000000	
10.505819	754.000000	
10.530428	806.000000	
10.555037	758.000000	
10.579646	770.000000	
10.604256	812.000000	
10.628865	843.000000	
10.653474	815.000000	
10.678083	843.000000	
10.702693	902.000000	
10.727302	925.000000	
10.751911	954.000000	
10.776520	994.000000	
10.801130	988.000000	
10.825739	1144.000000	
10.850348	1267.000000	
10.874957	1425.000000	
10.899567	1689.000000	
10.924176	2260.000000	
10.948785	3010.000000	
10.973394	4668.000000	
10.998004	6897.000000	
11.022613	10113.000000	
11.047222	13566.000000	
11.071831	14740.000000	
11.096440	13269.000000	
11.121050	10458.000000	
11.145659	7786.000000	
11.170268	5451.000000	
11.194877	3803.000000	
11.219487	2691.000000	
11.244096	2044.000000	
11.268705	1674.000000	
11.293314	1343.000000	
11.317924	1229.000000	
11.342533	1124.000000	
11.367142	1089.000000	
11.391751	1042.000000	
11.416361	982.000000	
11.440970	954.000000	
11.465579	910.000000	
11.490188	895.000000	
11.514798	956.000000	
11.539407	966.000000	
11.564016	950.000000	
11.588625	926.000000	
11.613235	869.000000	
11.637844	893.000000	
11.662453	885.000000	
11.687062	907.000000	
11.711672	882.000000	
11.736281	894.000000	
11.760890	881.000000	
11.785499	886.000000	
11.810108	889.000000	
11.834718	923.000000	
11.859327	882.000000	
11.883936	914.000000	
11.908545	856.000000	
11.933155	880.000000	
11.957764	948.000000	
11.982373	875.000000	
12.006982	920.000000	
12.031592	917.000000	
12.056201	884.000000	
12.080810	869.000000	
12.105419	867.000000	
12.130029	967.000000	
12.154638	901.000000	
12.179247	902.000000	
12.203856	892.000000	
12.228466	909.000000	
12.253075	905.000000	
12.277684	892.000000	
12.302293	868.000000	
12.326903	935.000000	
12.351512	918.000000	
12.376121	944.000000	
12.400730	960.000000	
12.425340	895.000000	
12.449949	903.000000	
12.474558	895.000000	
12.499167	866.000000	
12.523776	910.000000	
12.548386	924.000000	
12.572995	874.000000	
12.597604	911.000000	
12.622213	929.000000	
12.646823	880.000000	
12.671432	943.000000	
12.696041	898.000000	
12.720650	889.000000	
12.745260	922.000000	
12.769869	901.000000	
12.794478	858.000000	
12.819087	874.000000	
12.843697	894.000000	
12.868306	931.000000	
12.892915	900.000000	
12.917524	913.000000	
12.942134	894.000000	
12.966743	931.000000	
12.991352	949.000000	
13.015961	880.000000	
13.040571	953.000000	
13.065180	972.000000	
13.089789	940.000000	
13.114398	891.000000	
13.139008	863.000000	
13.163617	955.000000	
13.188226	889.000000	
13.212835	864.000000	
13.237444	891.000000	
13.262054	887.000000	
13.286663	921.000000	
13.311272	891.000000	
13.335881	867.000000	
13.360491	865.000000	
13.385100	934.000000	
13.409709	874.000000	
13.434318	925.000000	
13.458928	877.000000	
13.483537	904.000000	
13.508146	870.000000	
13.532755	871.000000	
13.557365	903.000000	
13.581974	899.000000	
13.606583	945.000000	
13.631192	927.000000	
13.655802	898.000000	
13.680411	864.000000	
13.705020	909.000000	
13.729629	937.000000	
13.754239	892.000000	
13.778848	877.000000	
13.803457	896.000000	
13.828066	886.000000	
13.852676	931.000000	
13.877285	860.000000	
13.901894	912.000000	
13.926503	879.000000	
13.951112	929.000000	
13.975722	864.000000	
14.000331	891.000000	
14.024940	855.000000	
14.049549	939.000000	
14.074159	887.000000	
14.098768	890.000000	
14.123377	881.000000	
14.147986	907.000000	
14.172596	871.000000	
14.197205	931.000000	
14.221814	859.000000	
14.246423	955.000000	
14.271033	832.000000	
14.295642	839.000000	
14.320251	854.000000	
14.344860	852.000000	
14.369470	933.000000	
14.394079	921.000000	
14.418688	869.000000	
14.443297	883.000000	
14.467907	851.000000	
14.492516	899.000000	
14.517125	916.000000	
14.541734	875.000000	
14.566344	916.000000	
14.590953	875.000000	
14.615562	899.000000	
14.640171	930.000000	
14.664780	882.000000	
14.689390	915.000000	
14.713999	850.000000	
14.738608	878.000000	
14.763217	897.000000	
14.787827	823.000000	
14.812436	987.000000	
14.837045	897.000000	
14.861654	874.000000	
14.886264	880.000000	
14.910873	888.000000	
14.935482	884.000000	
14.960091	946.000000	
14.984701	862.000000	
15.009310	897.000000	
15.033919	861.000000	
15.058528	897.000000	
15.083138	878.000000	
15.107747	903.000000	
15.132356	894.000000	
15.156965	891.000000	
15.181575	901.000000	
15.206184	861.000000	
15.230793	892.000000	
15.255402	888.000000	
15.280012	950.000000	
15.304621	913.000000	
15.329230	903.000000	
15.353839	909.000000	
15.378449	875.000000	
15.403058	899.000000	
15.427667	911.000000	
15.452276	878.000000	
15.476885	880.000000	
15.501495	994.000000	
15.526104	872.000000	
15.550713	901.000000	
15.575322	935.000000	
15.599932	882.000000	
15.624541	938.000000	
15.649150	892.000000	
15.673759	914.000000	
15.698369	904.000000	
15.722978	955.000000	
15.747587	917.000000	
15.772196	996.000000	
15.796806	934.000000	
15.821415	945.000000	
15.846024	936.000000	
15.870633	922.000000	
15.895243	1043.000000	
15.919852	980.000000	
15.944461	1083.000000	
15.969070	1050.000000	
15.993680	1159.000000	
16.018289	1339.000000	
16.042898	1550.000000	
16.067507	1788.000000	
16.092117	2285.000000	
16.116726	2709.000000	
16.141335	3204.000000	
16.165944	3477.000000	
16.190553	3417.000000	
16.215163	3145.000000	
16.239772	2692.000000	
16.264381	2299.000000	
16.288990	1954.000000	
16.313600	1707.000000	
16.338209	1587.000000	
16.362818	1359.000000	
16.387427	1349.000000	
16.412037	1265.000000	
16.436646	1200.000000	
16.461255	1183.000000	
16.485864	1246.000000	
16.510474	1309.000000	
16.535083	1383.000000	
16.559692	1546.000000	
16.584301	1693.000000	
16.608911	1721.000000	
16.633520	1596.000000	
16.658129	1376.000000	
16.682738	1348.000000	
16.707348	1236.000000	
16.731957	1190.000000	
16.756566	1085.000000	
16.781175	1053.000000	
16.805785	1049.000000	
16.830394	1023.000000	
16.855003	1008.000000	
16.879612	1031.000000	
16.904221	1000.000000	
16.928831	1045.000000	
16.953440	976.000000	
16.978049	1057.000000	
17.002658	1074.000000	
17.027268	972.000000	
17.051877	1003.000000	
17.076486	1016.000000	
17.101095	1029.000000	
17.125705	1049.000000	
17.150314	1059.000000	
17.174923	1059.000000	
17.199532	1105.000000	
17.224142	1091.000000	
17.248751	1106.000000	
17.273360	1191.000000	
17.297969	1195.000000	
17.322579	1285.000000	
17.347188	1385.000000	
17.371797	1637.000000	
17.396406	1824.000000	
17.421016	2470.000000	
17.445625	3223.000000	
17.470234	4621.000000	
17.494843	6755.000000	
17.519453	8956.000000	
17.544062	10985.000000	
17.568671	11714.000000	
17.593280	11054.000000	
17.617889	9732.000000	
17.642499	8171.000000	
17.667108	6658.000000	
17.691717	4976.000000	
17.716326	3755.000000	
17.740936	2955.000000	
17.765545	2329.000000	
17.790154	1995.000000	
17.814763	1705.000000	
17.839373	1540.000000	
17.863982	1398.000000	
17.888591	1364.000000	
17.913200	1194.000000	
17.937810	1280.000000	
17.962419	1156.000000	
17.987028	1154.000000	
18.011637	1191.000000	
18.036247	1192.000000	
18.060856	1178.000000	
18.085465	1283.000000	
18.110074	1256.000000	
18.134684	1273.000000	
18.159293	1267.000000	
18.183902	1259.000000	
18.208511	1340.000000	
18.233121	1358.000000	
18.257730	1354.000000	
18.282339	1366.000000	
18.306948	1389.000000	
18.331557	1509.000000	
18.356167	1464.000000	
18.380776	1552.000000	
18.405385	1716.000000	
18.429994	1807.000000	
18.454604	2013.000000	
18.479213	2253.000000	
18.503822	2620.000000	
18.528431	3305.000000	
18.553041	4209.000000	
18.577650	6033.000000	
18.602259	8818.000000	
18.626868	13219.000000	
18.651478	18857.000000	
18.676087	24665.000000	
18.700696	28224.000000	
18.725305	28912.000000	
18.749915	26915.000000	
18.774524	22111.000000	
18.799133	17432.000000	
18.823742	13372.000000	
18.848352	9967.000000	
18.872961	7575.000000	
18.897570	5762.000000	
18.922179	4533.000000	
18.946789	3493.000000	
18.971398	2838.000000	
18.996007	2582.000000	
19.020616	2010.000000	
19.045225	1827.000000	
19.069835	1659.000000	
19.094444	1679.000000	
19.119053	1503.000000	
19.143662	1413.000000	
19.168272	1394.000000	
19.192881	1309.000000	
19.217490	1234.000000	
19.242099	1188.000000	
19.266709	1191.000000	
19.291318	1195.000000	
19.315927	1148.000000	
19.340536	1156.000000	
19.365146	1042.000000	
19.389755	1035.000000	
19.414364	1064.000000	
19.438973	1000.000000	
19.463583	1109.000000	
19.488192	1083.000000	
19.512801	1084.000000	
19.537410	1060.000000	
19.562020	1050.000000	
19.586629	1061.000000	
19.611238	992.000000	
19.635847	1024.000000	
19.660457	1033.000000	
19.685066	1009.000000	
19.709675	1021.000000	
19.734284	1010.000000	
19.758894	988.000000	
19.783503	997.000000	
19.808112	1048.000000	
19.832721	1054.000000	
19.857330	1061.000000	
19.881940	1036.000000	
19.906549	1041.000000	
19.931158	1009.000000	
19.955767	1017.000000	
19.980377	1064.000000	
20.004986	1038.000000	
20.029595	1060.000000	
20.054204	999.000000	
20.078814	1021.000000	
20.103423	1074.000000	
20.128032	1123.000000	
20.152641	1119.000000	
20.177251	1202.000000	
20.201860	1408.000000	
20.226469	1731.000000	
20.251078	2143.000000	
20.275688	2438.000000	
20.300297	2546.000000	
20.324906	2481.000000	
20.349515	2292.000000	
20.374125	2162.000000	
20.398734	2083.000000	
20.423343	1974.000000	
20.447952	1803.000000	
20.472562	1600.000000	
20.497171	1427.000000	
20.521780	1323.000000	
20.546389	1251.000000	
20.570998	1123.000000	
20.595608	1049.000000	
20.620217	1043.000000	
20.644826	1023.000000	
20.669435	985.000000	
20.694045	978.000000	
20.718654	960.000000	
20.743263	931.000000	
20.767872	947.000000	
20.792482	1019.000000	
20.817091	998.000000	
20.841700	919.000000	
20.866309	1006.000000	
20.890919	1002.000000	
20.915528	945.000000	
20.940137	1006.000000	
20.964746	974.000000	
20.989356	960.000000	
21.013965	971.000000	
21.038574	995.000000	
21.063183	978.000000	
21.087793	947.000000	
21.112402	1030.000000	
21.137011	989.000000	
21.161620	990.000000	
21.186230	1003.000000	
21.210839	957.000000	
21.235448	993.000000	
21.260057	1003.000000	
21.284666	994.000000	
21.309276	950.000000	
21.333885	1035.000000	
21.358494	1035.000000	
21.383103	1074.000000	
21.407713	1117.000000	
21.432322	1138.000000	
21.456931	1180.000000	
21.481540	1351.000000	
21.506150	1777.000000	
21.530759	2553.000000	
21.555368	4079.000000	
21.579977	5850.000000	
21.604587	6533.000000	
21.629196	6915.000000	
21.653805	6041.000000	
21.678414	4903.000000	
21.703024	3574.000000	
21.727633	2725.000000	
21.752242	2179.000000	
21.776851	1706.000000	
21.801461	1433.000000	
21.826070	1264.000000	
21.850679	1304.000000	
21.875288	1284.000000	
21.899898	1321.000000	
21.924507	1375.000000	
21.949116	1544.000000	
21.973725	1730.000000	
21.998334	2120.000000	
22.022944	2289.000000	
22.047553	2693.000000	
22.072162	2814.000000	
22.096771	2804.000000	
22.121381	2701.000000	
22.145990	2344.000000	
22.170599	2039.000000	
22.195208	1765.000000	
22.219818	1634.000000	
22.244427	1381.000000	
22.269036	1311.000000	
22.293645	1199.000000	
22.318255	1138.000000	
22.342864	1106.000000	
22.367473	1089.000000	
22.392082	1094.000000	
22.416692	1030.000000	
22.441301	1016.000000	
22.465910	1081.000000	
22.490519	1005.000000	
22.515129	1015.000000	
22.539738	1006.000000	
22.564347	961.000000	
22.588956	980.000000	
22.613566	930.000000	
22.638175	1013.000000	
22.662784	972.000000	
22.687393	964.000000	
22.712002	1024.000000	
22.736612	958.000000	
22.761221	1014.000000	
22.785830	1003.000000	
22.810439	1020.000000	
22.835049	915.000000	
22.859658	1027.000000	
22.884267	940.000000	
22.908876	981.000000	
22.933486	925.000000	
22.958095	971.000000	
22.982704	977.000000	
23.007313	1006.000000	
23.031923	932.000000	
23.056532	953.000000	
23.081141	943.000000	
23.105750	936.000000	
23.130360	962.000000	
23.154969	961.000000	
23.179578	1002.000000	
23.204187	987.000000	
23.228797	970.000000	
23.253406	914.000000	
23.278015	935.000000	
23.302624	981.000000	
23.327234	927.000000	
23.351843	1012.000000	
23.376452	997.000000	
23.401061	937.000000	
23.425670	1047.000000	
23.450280	950.000000	
23.474889	963.000000	
23.499498	1060.000000	
23.524107	1075.000000	
23.548717	999.000000	
23.573326	937.000000	
23.597935	1012.000000	
23.622544	999.000000	
23.647154	1051.000000	
23.671763	1066.000000	
23.696372	1076.000000	
23.720981	1140.000000	
23.745591	1033.000000	
23.770200	1078.000000	
23.794809	1092.000000	
23.819418	1100.000000	
23.844028	1057.000000	
23.868637	1102.000000	
23.893246	1142.000000	
23.917855	1086.000000	
23.942465	1152.000000	
23.967074	1122.000000	
23.991683	1250.000000	
24.016292	1237.000000	
24.040902	1293.000000	
24.065511	1486.000000	
24.090120	1691.000000	
24.114729	1933.000000	
24.139339	2580.000000	
24.163948	3600.000000	
24.188557	5111.000000	
24.213166	6393.000000	
24.237775	6761.000000	
24.262385	6776.000000	
24.286994	5868.000000	
24.311603	5163.000000	
24.336212	4299.000000	
24.360822	3397.000000	
24.385431	3090.000000	
24.410040	3033.000000	
24.434649	3555.000000	
24.459259	4881.000000	
24.483868	8046.000000	
24.508477	10145.000000	
24.533086	9747.000000	
24.557696	9258.000000	
24.582305	8121.000000	
24.606914	6204.000000	
24.631523	4520.000000	
24.656133	3504.000000	
24.680742	2713.000000	
24.705351	2094.000000	
24.729960	1777.000000	
24.754570	1622.000000	
24.779179	1480.000000	
24.803788	1420.000000	
24.828397	1352.000000	
24.853007	1381.000000	
24.877616	1447.000000	
24.902225	1410.000000	
24.926834	1503.000000	
24.951443	1397.000000	
24.976053	1505.000000	
25.000662	1574.000000	
25.025271	1582.000000	
25.049880	1814.000000	
25.074490	1941.000000	
25.099099	2207.000000	
25.123708	2488.000000	
25.148317	2856.000000	
25.172927	3106.000000	
25.197536	3410.000000	
25.222145	3702.000000	
25.246754	3706.000000	
25.271364	3761.000000	
25.295973	3712.000000	
25.320582	3492.000000	
25.345191	3365.000000	
25.369801	3174.000000	
25.394410	3060.000000	
25.419019	2651.000000	
25.443628	2392.000000	
25.468238	2365.000000	
25.492847	2157.000000	
25.517456	2148.000000	
25.542065	2137.000000	
25.566675	2296.000000	
25.591284	2419.000000	
25.615893	2795.000000	
25.640502	3221.000000	
25.665111	3857.000000	
25.689721	4676.000000	
25.714330	5855.000000	
25.738939	7317.000000	
25.763548	8885.000000	
25.788158	10157.000000	
25.812767	11024.000000	
25.837376	11281.000000	
25.861985	11797.000000	
25.886595	11326.000000	
25.911204	10748.000000	
25.935813	9939.000000	
25.960422	8855.000000	
25.985032	7967.000000	
26.009641	6719.000000	
26.034250	5913.000000	
26.058859	5286.000000	
26.083469	4933.000000	
26.108078	5071.000000	
26.132687	5269.000000	
26.157296	5443.000000	
26.181906	5425.000000	
26.206515	5265.000000	
26.231124	4814.000000	
26.255733	4270.000000	
26.280343	3702.000000	
26.304952	3131.000000	
26.329561	2683.000000	
26.354170	2292.000000	
26.378779	2124.000000	
26.403389	1936.000000	
26.427998	1724.000000	
26.452607	1671.000000	
26.477216	1631.000000	
26.501826	1545.000000	
26.526435	1474.000000	
26.551044	1488.000000	
26.575653	1452.000000	
26.600263	1439.000000	
26.624872	1375.000000	
26.649481	1414.000000	
26.674090	1354.000000	
26.698700	1401.000000	
26.723309	1463.000000	
26.747918	1396.000000	
26.772527	1398.000000	
26.797137	1375.000000	
26.821746	1416.000000	
26.846355	1412.000000	
26.870964	1376.000000	
26.895574	1395.000000	
26.920183	1393.000000	
26.944792	1369.000000	
26.969401	1459.000000	
26.994011	1444.000000	
27.018620	1421.000000	
27.043229	1397.000000	
27.067838	1303.000000	
27.092447	1439.000000	
27.117057	1440.000000	
27.141666	1424.000000	
27.166275	1634.000000	
27.190884	1572.000000	
27.215494	1691.000000	
27.240103	1784.000000	
27.264712	1818.000000	
27.289321	2021.000000	
27.313931	2210.000000	
27.338540	2443.000000	
27.363149	2850.000000	
27.387758	3430.000000	
27.412368	4324.000000	
27.436977	5189.000000	
27.461586	6783.000000	
27.486195	8987.000000	
27.510805	10937.000000	
27.535414	12721.000000	
27.560023	14538.000000	
27.584632	15516.000000	
27.609242	15878.000000	
27.633851	15661.000000	
27.658460	15284.000000	
27.683069	14221.000000	
27.707679	13397.000000	
27.732288	12004.000000	
27.756897	10485.000000	
27.781506	8935.000000	
27.806115	7524.000000	
27.830725	6012.000000	
27.855334	4836.000000	
27.879943	4083.000000	
27.904552	3393.000000	
27.929162	2878.000000	
27.953771	2601.000000	
27.978380	2232.000000	
28.002989	2000.000000	
28.027599	1899.000000	
28.052208	1749.000000	
28.076817	1694.000000	
28.101426	1723.000000	
28.126036	1547.000000	
28.150645	1567.000000	
28.175254	1470.000000	
28.199863	1394.000000	
28.224473	1475.000000	
28.249082	1369.000000	
28.273691	1353.000000	
28.298300	1404.000000	
28.322910	1391.000000	
28.347519	1386.000000	
28.372128	1413.000000	
28.396737	1410.000000	
28.421347	1332.000000	
28.445956	1439.000000	
28.470565	1464.000000	
28.495174	1557.000000	
28.519783	1680.000000	
28.544393	1858.000000	
28.569002	2316.000000	
28.593611	2808.000000	
28.618220	3457.000000	
28.642830	3869.000000	
28.667439	3987.000000	
28.692048	4022.000000	
28.716657	3874.000000	
28.741267	3432.000000	
28.765876	2949.000000	
28.790485	2527.000000	
28.815094	2162.000000	
28.839704	1827.000000	
28.864313	1666.000000	
28.888922	1482.000000	
28.913531	1410.000000	
28.938141	1320.000000	
28.962750	1302.000000	
28.987359	1277.000000	
29.011968	1201.000000	
29.036578	1164.000000	
29.061187	1170.000000	
29.085796	1196.000000	
29.110405	1151.000000	
29.135015	1190.000000	
29.159624	1117.000000	
29.184233	1125.000000	
29.208842	1178.000000	
29.233452	1163.000000	
29.258061	1145.000000	
29.282670	1202.000000	
29.307279	1155.000000	
29.331888	1183.000000	
29.356498	1179.000000	
29.381107	1158.000000	
29.405716	1221.000000	
29.430325	1184.000000	
29.454935	1211.000000	
29.479544	1165.000000	
29.504153	1135.000000	
29.528762	1172.000000	
29.553372	1143.000000	
29.577981	1203.000000	
29.602590	1134.000000	
29.627199	1186.000000	
29.651809	1240.000000	
29.676418	1143.000000	
29.701027	1232.000000	
29.725636	1194.000000	
29.750246	1180.000000	
29.774855	1237.000000	
29.799464	1207.000000	
29.824073	1232.000000	
29.848683	1245.000000	
29.873292	1305.000000	
29.897901	1254.000000	
29.922510	1285.000000	
29.947120	1349.000000	
29.971729	1421.000000	
29.996338	1458.000000	
30.020947	1511.000000	
30.045556	1722.000000	
30.070166	1896.000000	
30.094775	2192.000000	
30.119384	2612.000000	
30.143993	3304.000000	
30.168603	4288.000000	
30.193212	5372.000000	
30.217821	6700.000000	
30.242430	7686.000000	
30.267040	8377.000000	
30.291649	8904.000000	
30.316258	8904.000000	
30.340867	8404.000000	
30.365477	7598.000000	
30.390086	6759.000000	
30.414695	5671.000000	
30.439304	4785.000000	
30.463914	3999.000000	
30.488523	3247.000000	
30.513132	2783.000000	
30.537741	2439.000000	
30.562351	2143.000000	
30.586960	1961.000000	
30.611569	1952.000000	
30.636178	1676.000000	
30.660788	1695.000000	
30.685397	1691.000000	
30.710006	1692.000000	
30.734615	1881.000000	
30.759224	2067.000000	
30.783834	2102.000000	
30.808443	2204.000000	
30.833052	2120.000000	
30.857661	2027.000000	
30.882271	2015.000000	
30.906880	1795.000000	
30.931489	1707.000000	
30.956098	1542.000000	
30.980708	1480.000000	
31.005317	1389.000000	
31.029926	1301.000000	
31.054535	1321.000000	
31.079145	1295.000000	
31.103754	1246.000000	
31.128363	1282.000000	
31.152972	1153.000000	
31.177582	1233.000000	
31.202191	1109.000000	
31.226800	1116.000000	
31.251409	1157.000000	
31.276019	1117.000000	
31.300628	1167.000000	
31.325237	1154.000000	
31.349846	1105.000000	
31.374456	1105.000000	
31.399065	1101.000000	
31.423674	1110.000000	
31.448283	1070.000000	
31.472892	1153.000000	
31.497502	1128.000000	
31.522111	1178.000000	
31.546720	1119.000000	
31.571329	1052.000000	
31.595939	1042.000000	
31.620548	1066.000000	
31.645157	1113.000000	
31.669766	1039.000000	
31.694376	1032.000000	
31.718985	1056.000000	
31.743594	1087.000000	
31.768203	1035.000000	
31.792813	1020.000000	
31.817422	1094.000000	
31.842031	1121.000000	
31.866640	1106.000000	
31.891250	1084.000000	
31.915859	1114.000000	
31.940468	1100.000000	
31.965077	1087.000000	
31.989687	1123.000000	
32.014296	1123.000000	
32.038905	1086.000000	
32.063514	1138.000000	
32.088124	1159.000000	
32.112733	1210.000000	
32.137342	1297.000000	
32.161951	1317.000000	
32.186560	1398.000000	
32.211170	1544.000000	
32.235779	1841.000000	
32.260388	2161.000000	
32.284997	2307.000000	
32.309607	2579.000000	
32.334216	2631.000000	
32.358825	2863.000000	
32.383434	2773.000000	
32.408044	2858.000000	
32.432653	2951.000000	
32.457262	3062.000000	
32.481871	3230.000000	
32.506481	3131.000000	
32.531090	3130.000000	
32.555699	3183.000000	
32.580308	3053.000000	
32.604918	2910.000000	
32.629527	2780.000000	
32.654136	2405.000000	
32.678745	2436.000000	
32.703355	2328.000000	
32.727964	2155.000000	
32.752573	2192.000000	
32.777182	1957.000000	
32.801792	1991.000000	
32.826401	1907.000000	
32.851010	1945.000000	
32.875619	1873.000000	
32.900228	1780.000000	
32.924838	1738.000000	
32.949447	1730.000000	
32.974056	1818.000000	
32.998665	1917.000000	
33.023275	2122.000000	
33.047884	2293.000000	
33.072493	2589.000000	
33.097102	2747.000000	
33.121712	2893.000000	
33.146321	3118.000000	
33.170930	3089.000000	
33.195539	3269.000000	
33.220149	3382.000000	
33.244758	3463.000000	
33.269367	3585.000000	
33.293976	3773.000000	
33.318586	4077.000000	
33.343195	4279.000000	
33.367804	4216.000000	
33.392413	4255.000000	
33.417023	4291.000000	
33.441632	4080.000000	
33.466241	3842.000000	
33.490850	3575.000000	
33.515460	3400.000000	
33.540069	3131.000000	
33.564678	2931.000000	
33.589287	2675.000000	
33.613897	2574.000000	
33.638506	2543.000000	
33.663115	2626.000000	
33.687724	2561.000000	
33.712333	2619.000000	
33.736943	2627.000000	
33.761552	2613.000000	
33.786161	2553.000000	
33.810770	2277.000000	
33.835380	2071.000000	
33.859989	1863.000000	
33.884598	1712.000000	
33.909207	1516.000000	
33.933817	1405.000000	
33.958426	1324.000000	
33.983035	1225.000000	
34.007644	1161.000000	
34.032254	1109.000000	
34.056863	1156.000000	
34.081472	1103.000000	
34.106081	1093.000000	
34.130691	1104.000000	
34.155300	1181.000000	
34.179909	1143.000000	
34.204518	1227.000000	
34.229128	1377.000000	
34.253737	1532.000000	
34.278346	1786.000000	
34.302955	2113.000000	
34.327565	2365.000000	
34.352174	2577.000000	
34.376783	2748.000000	
34.401392	2570.000000	
34.426001	2421.000000	
34.450611	2281.000000	
34.475220	2123.000000	
34.499829	1877.000000	
34.524438	1679.000000	
34.549048	1509.000000	
34.573657	1409.000000	
34.598266	1224.000000	
34.622875	1198.000000	
34.647485	1080.000000	
34.672094	1130.000000	
34.696703	1019.000000	
34.721312	983.000000	
34.745922	915.000000	
34.770531	932.000000	
34.795140	905.000000	
34.819749	933.000000	
34.844359	929.000000	
34.868968	901.000000	
34.893577	903.000000	
34.918186	891.000000	
34.942796	949.000000	
34.967405	945.000000	
34.992014	937.000000	
35.016623	972.000000	
35.041233	1050.000000	
35.065842	1074.000000	
35.090451	1088.000000	
35.115060	1136.000000	
35.139669	1171.000000	
35.164279	1242.000000	
35.188888	1274.000000	
35.213497	1296.000000	
35.238106	1303.000000	
35.262716	1269.000000	
35.287325	1298.000000	
35.311934	1310.000000	
35.336543	1319.000000	
35.361153	1287.000000	
35.385762	1295.000000	
35.410371	1230.000000	
35.434980	1253.000000	
35.459590	1266.000000	
35.484199	1181.000000	
35.508808	1213.000000	
35.533417	1091.000000	
35.558027	1090.000000	
35.582636	1032.000000	
35.607245	1040.000000	
35.631854	957.000000	
35.656464	940.000000	
35.681073	925.000000	
35.705682	929.000000	
35.730291	909.000000	
35.754901	867.000000	
35.779510	924.000000	
35.804119	867.000000	
35.828728	861.000000	
35.853337	855.000000	
35.877947	862.000000	
35.902556	845.000000	
35.927165	854.000000	
35.951774	852.000000	
35.976384	813.000000	
36.000993	854.000000	
36.025602	817.000000	
36.050211	843.000000	
36.074821	814.000000	
36.099430	809.000000	
36.124039	831.000000	
36.148648	818.000000	
36.173258	805.000000	
36.197867	807.000000	
36.222476	743.000000	
36.247085	782.000000	
36.271695	761.000000	
36.296304	770.000000	
36.320913	849.000000	
36.345522	824.000000	
36.370132	847.000000	
36.394741	855.000000	
36.419350	891.000000	
36.443959	895.000000	
36.468569	916.000000	
36.493178	960.000000	
36.517787	949.000000	
36.542396	887.000000	
36.567005	874.000000	
36.591615	886.000000	
36.616224	884.000000	
36.640833	807.000000	
36.665442	786.000000	
36.690052	785.000000	
36.714661	758.000000	
36.739270	752.000000	
36.763879	759.000000	
36.788489	732.000000	
36.813098	776.000000	
36.837707	787.000000	
36.862316	756.000000	
36.886926	791.000000	
36.911535	796.000000	
36.936144	734.000000	
36.960753	789.000000	
36.985363	747.000000	
37.009972	754.000000	
37.034581	815.000000	
37.059190	786.000000	
37.083800	775.000000	
37.108409	731.000000	
37.133018	770.000000	
37.157627	710.000000	
37.182237	732.000000	
37.206846	684.000000	
37.231455	731.000000	
37.256064	730.000000	
37.280673	787.000000	
37.305283	727.000000	
37.329892	774.000000	
37.354501	764.000000	
37.379110	753.000000	
37.403720	776.000000	
37.428329	715.000000	
37.452938	742.000000	
37.477547	768.000000	
37.502157	784.000000	
37.526766	727.000000	
37.551375	837.000000	
37.575984	783.000000	
37.600594	758.000000	
37.625203	791.000000	
37.649812	766.000000	
37.674421	760.000000	
37.699031	775.000000	
37.723640	758.000000	
37.748249	858.000000	
37.772858	813.000000	
37.797468	821.000000	
37.822077	826.000000	
37.846686	789.000000	
37.871295	804.000000	
37.895905	857.000000	
37.920514	826.000000	
37.945123	911.000000	
37.969732	901.000000	
37.994341	993.000000	
38.018951	1023.000000	
38.043560	1002.000000	
38.068169	1056.000000	
38.092778	1028.000000	
38.117388	1040.000000	
38.141997	1037.000000	
38.166606	996.000000	
38.191215	989.000000	
38.215825	898.000000	
38.240434	939.000000	
38.265043	895.000000	
38.289652	876.000000	
38.314262	828.000000	
38.338871	814.000000	
38.363480	828.000000	
38.388089	884.000000	
38.412699	793.000000	
38.437308	825.000000	
38.461917	893.000000	
38.486526	876.000000	
38.511136	921.000000	
38.535745	1036.000000	
38.560354	1004.000000	
38.584963	1075.000000	
38.609573	1041.000000	
38.634182	1098.000000	
38.658791	1068.000000	
38.683400	1072.000000	
38.708010	1022.000000	
38.732619	1003.000000	
38.757228	908.000000	
38.781837	890.000000	
38.806446	823.000000	
38.831056	807.000000	
38.855665	840.000000	
38.880274	836.000000	
38.904883	804.000000	
38.929493	809.000000	
38.954102	796.000000	
38.978711	759.000000	
39.003320	778.000000	
39.027930	801.000000	
39.052539	803.000000	
39.077148	821.000000	
39.101757	807.000000	
39.126367	913.000000	
39.150976	938.000000	
39.175585	1088.000000	
39.200194	1165.000000	
39.224804	1345.000000	
39.249413	1469.000000	
39.274022	1468.000000	
39.298631	1421.000000	
39.323241	1464.000000	
39.347850	1333.000000	
39.372459	1272.000000	
39.397068	1198.000000	
39.421678	1078.000000	
39.446287	1002.000000	
39.470896	977.000000	
39.495505	919.000000	
39.520114	892.000000	
39.544724	876.000000	
39.569333	912.000000	
39.593942	863.000000	
39.618551	875.000000	
39.643161	922.000000	
39.667770	921.000000	
39.692379	966.000000	
39.716988	983.000000	
39.741598	980.000000	
39.766207	948.000000	
39.790816	990.000000	
39.815425	972.000000	
39.840035	947.000000	
39.864644	989.000000	
39.889253	892.000000	
39.913862	878.000000	
39.938472	912.000000	
39.963081	865.000000	
39.987690	855.000000	
40.012299	836.000000	
40.036909	834.000000	
40.061518	798.000000	
40.086127	783.000000	
40.110736	751.000000	
40.135346	803.000000	
40.159955	740.000000	
40.184564	749.000000	
40.209173	743.000000	
40.233782	758.000000	
40.258392	736.000000	
40.283001	757.000000	
40.307610	757.000000	
40.332219	750.000000	
40.356829	735.000000	
40.381438	742.000000	
40.406047	806.000000	
40.430656	798.000000	
40.455266	803.000000	
40.479875	784.000000	
40.504484	782.000000	
40.529093	788.000000	
40.553703	788.000000	
40.578312	786.000000	
40.602921	704.000000	
40.627530	756.000000	
40.652140	705.000000	
40.676749	735.000000	
40.701358	718.000000	
40.725967	735.000000	
40.750577	753.000000	
40.775186	769.000000	
40.799795	816.000000	
40.824404	852.000000	
40.849014	987.000000	
40.873623	1093.000000	
40.898232	1153.000000	
40.922841	1338.000000	
40.947450	1277.000000	
40.972060	1252.000000	
40.996669	1338.000000	
41.021278	1294.000000	
41.045887	1211.000000	
41.070497	1148.000000	
41.095106	1117.000000	
41.119715	1015.000000	
41.144324	914.000000	
41.168934	925.000000	
41.193543	836.000000	
41.218152	800.000000	
41.242761	838.000000	
41.267371	777.000000	
41.291980	767.000000	
41.316589	801.000000	
41.341198	792.000000	
41.365808	824.000000	
41.390417	809.000000	
41.415026	805.000000	
41.439635	803.000000	
41.464245	864.000000	
41.488854	868.000000	
41.513463	891.000000	
41.538072	944.000000	
41.562682	923.000000	
41.587291	953.000000	
41.611900	1005.000000	
41.636509	961.000000	
41.661118	960.000000	
41.685728	1017.000000	
41.710337	1039.000000	
41.734946	945.000000	
41.759555	1017.000000	
41.784165	1052.000000	
41.808774	995.000000	
41.833383	1144.000000	
41.857992	1059.000000	
41.882602	1156.000000	
41.907211	1137.000000	
41.931820	1122.000000	
41.956429	1034.000000	
41.981039	1005.000000	
42.005648	986.000000	
42.030257	993.000000	
42.054866	899.000000	
42.079476	830.000000	
42.104085	837.000000	
42.128694	814.000000	
42.153303	811.000000	
42.177913	780.000000	
42.202522	800.000000	
42.227131	754.000000	
42.251740	779.000000	
42.276350	763.000000	
42.300959	758.000000	
42.325568	808.000000	
42.350177	787.000000	
42.374786	817.000000	
42.399396	786.000000	
42.424005	806.000000	
42.448614	846.000000	
42.473223	841.000000	
42.497833	834.000000	
42.522442	837.000000	
42.547051	896.000000	
42.571660	851.000000	
42.596270	814.000000	
42.620879	821.000000	
42.645488	882.000000	
42.670097	892.000000	
42.694707	837.000000	
42.719316	903.000000	
42.743925	837.000000	
42.768534	796.000000	
42.793144	786.000000	
42.817753	804.000000	
42.842362	778.000000	
42.866971	759.000000	
42.891581	740.000000	
42.916190	703.000000	
42.940799	695.000000	
42.965408	665.000000	
42.990018	688.000000	
43.014627	631.000000	
43.039236	683.000000	
43.063845	738.000000	
43.088455	700.000000	
43.113064	659.000000	
43.137673	647.000000	
43.162282	698.000000	
43.186891	681.000000	
43.211501	654.000000	
43.236110	683.000000	
43.260719	636.000000	
43.285328	675.000000	
43.309938	607.000000	
43.334547	643.000000	
43.359156	679.000000	
43.383765	695.000000	
43.408375	676.000000	
43.432984	669.000000	
43.457593	640.000000	
43.482202	611.000000	
43.506812	612.000000	
43.531421	662.000000	
43.556030	658.000000	
43.580639	687.000000	
43.605249	682.000000	
43.629858	633.000000	
43.654467	672.000000	
43.679076	690.000000	
43.703686	679.000000	
43.728295	682.000000	
43.752904	672.000000	
43.777513	692.000000	
43.802123	684.000000	
43.826732	754.000000	
43.851341	796.000000	
43.875950	757.000000	
43.900559	769.000000	
43.925169	785.000000	
43.949778	710.000000	
43.974387	751.000000	
43.998996	756.000000	
44.023606	793.000000	
44.048215	676.000000	
44.072824	666.000000	
44.097433	733.000000	
44.122043	708.000000	
44.146652	722.000000	
44.171261	628.000000	
44.195870	660.000000	
44.220480	683.000000	
44.245089	687.000000	
44.269698	723.000000	
44.294307	706.000000	
44.318917	682.000000	
44.343526	613.000000	
44.368135	670.000000	
44.392744	671.000000	
44.417354	682.000000	
44.441963	665.000000	
44.466572	646.000000	
44.491181	681.000000	
44.515791	672.000000	
44.540400	709.000000	
44.565009	715.000000	
44.589618	729.000000	
44.614227	690.000000	
44.638837	726.000000	
44.663446	784.000000	
44.688055	783.000000	
44.712664	799.000000	
44.737274	812.000000	
44.761883	891.000000	
44.786492	968.000000	
44.811101	981.000000	
44.835711	984.000000	
44.860320	1038.000000	
44.884929	1018.000000	
44.909538	990.000000	
44.934148	973.000000	
44.958757	965.000000	
44.983366	965.000000	
45.007975	944.000000	
45.032585	946.000000	
45.057194	913.000000	
45.081803	957.000000	
45.106412	881.000000	
45.131022	962.000000	
45.155631	902.000000	
45.180240	912.000000	
45.204849	915.000000	
45.229459	921.000000	
45.254068	917.000000	
45.278677	833.000000	
45.303286	886.000000	
45.327895	847.000000	
45.352505	804.000000	
45.377114	747.000000	
45.401723	697.000000	
45.426332	767.000000	
45.450942	629.000000	
45.475551	712.000000	
45.500160	659.000000	
45.524769	668.000000	
45.549379	676.000000	
45.573988	661.000000	
45.598597	698.000000	
45.623206	645.000000	
45.647816	651.000000	
45.672425	677.000000	
45.697034	600.000000	
45.721643	653.000000	
45.746253	594.000000	
45.770862	680.000000	
45.795471	693.000000	
45.820080	670.000000	
45.844690	616.000000	
45.869299	630.000000	
45.893908	669.000000	
45.918517	643.000000	
45.943127	649.000000	
45.967736	683.000000	
45.992345	651.000000	
46.016954	644.000000	
46.041563	662.000000	
46.066173	674.000000	
46.090782	688.000000	
46.115391	704.000000	
46.140000	699.000000	
46.164610	671.000000	
46.189219	708.000000	
46.213828	769.000000	
46.238437	790.000000	
46.263047	719.000000	
46.287656	825.000000	
46.312265	920.000000	
46.336874	891.000000	
46.361484	970.000000	
46.386093	959.000000	
46.410702	994.000000	
46.435311	1063.000000	
46.459921	1011.000000	
46.484530	1075.000000	
46.509139	1059.000000	
46.533748	1071.000000	
46.558358	1046.000000	
46.582967	1072.000000	
46.607576	1067.000000	
46.632185	1051.000000	
46.656795	971.000000	
46.681404	954.000000	
46.706013	914.000000	
46.730622	861.000000	
46.755231	830.000000	
46.779841	842.000000	
46.804450	833.000000	
46.829059	771.000000	
46.853668	804.000000	
46.878278	807.000000	
46.902887	781.000000	
46.927496	773.000000	
46.952105	775.000000	
46.976715	794.000000	
47.001324	797.000000	
47.025933	785.000000	
47.050542	741.000000	
47.075152	791.000000	
47.099761	759.000000	
47.124370	763.000000	
47.148979	759.000000	
47.173589	693.000000	
47.198198	711.000000	
47.222807	724.000000	
47.247416	708.000000	
47.272026	669.000000	
47.296635	706.000000	
47.321244	686.000000	
47.345853	717.000000	
47.370463	683.000000	
47.395072	687.000000	
47.419681	639.000000	
47.444290	694.000000	
47.468899	674.000000	
47.493509	686.000000	
47.518118	685.000000	
47.542727	650.000000	
47.567336	706.000000	
47.591946	646.000000	
47.616555	647.000000	
47.641164	670.000000	
47.665773	677.000000	
47.690383	727.000000	
47.714992	742.000000	
47.739601	740.000000	
47.764210	793.000000	
47.788820	800.000000	
47.813429	832.000000	
47.838038	819.000000	
47.862647	899.000000	
47.887257	915.000000	
47.911866	977.000000	
47.936475	940.000000	
47.961084	999.000000	
47.985694	970.000000	
48.010303	1007.000000	
48.034912	952.000000	
48.059521	948.000000	
48.084131	933.000000	
48.108740	903.000000	
48.133349	948.000000	
48.157958	947.000000	
48.182568	905.000000	
48.207177	889.000000	
48.231786	830.000000	
48.256395	825.000000	
48.281004	846.000000	
48.305614	866.000000	
48.330223	767.000000	
48.354832	830.000000	
48.379441	797.000000	
48.404051	769.000000	
48.428660	766.000000	
48.453269	851.000000	
48.477878	746.000000	
48.502488	756.000000	
48.527097	754.000000	
48.551706	737.000000	
48.576315	744.000000	
48.600925	745.000000	
48.625534	718.000000	
48.650143	748.000000	
48.674752	726.000000	
48.699362	730.000000	
48.723971	750.000000	
48.748580	756.000000	
48.773189	731.000000	
48.797799	728.000000	
48.822408	695.000000	
48.847017	722.000000	
48.871626	709.000000	
48.896236	768.000000	
48.920845	687.000000	
48.945454	754.000000	
48.970063	654.000000	
48.994672	674.000000	
49.019282	690.000000	
49.043891	712.000000	
49.068500	676.000000	
49.093109	691.000000	
49.117719	643.000000	
49.142328	710.000000	
49.166937	718.000000	
49.191546	723.000000	
49.216156	687.000000	
49.240765	715.000000	
49.265374	706.000000	
49.289983	718.000000	
49.314593	722.000000	
49.339202	761.000000	
49.363811	808.000000	
49.388420	873.000000	
49.413030	893.000000	
49.437639	919.000000	
49.462248	921.000000	
49.486857	897.000000	
49.511467	937.000000	
49.536076	932.000000	
49.560685	916.000000	
49.585294	889.000000	
49.609904	850.000000	
49.634513	783.000000	
49.659122	778.000000	
49.683731	748.000000	
49.708340	729.000000	
49.732950	680.000000	
49.757559	708.000000	
49.782168	738.000000	
49.806777	697.000000	
49.831387	722.000000	
49.855996	703.000000	
49.880605	672.000000	
49.905214	679.000000	
49.929824	675.000000	
49.954433	725.000000	
49.979042	711.000000	
50.003651	707.000000	
50.028261	713.000000	
50.052870	751.000000	
50.077479	765.000000	
50.102088	765.000000	
50.126698	746.000000	
50.151307	741.000000	
50.175916	723.000000	
50.200525	721.000000	
50.225135	762.000000	
50.249744	697.000000	
50.274353	702.000000	
50.298962	656.000000	
50.323572	660.000000	
50.348181	690.000000	
50.372790	656.000000	
50.397399	709.000000	
50.422008	716.000000	
50.446618	682.000000	
50.471227	657.000000	
50.495836	654.000000	
50.520445	665.000000	
50.545055	683.000000	
50.569664	681.000000	
50.594273	708.000000	
50.618882	687.000000	
50.643492	699.000000	
50.668101	630.000000	
50.692710	712.000000	
50.717319	713.000000	
50.741929	712.000000	
50.766538	653.000000	
50.791147	710.000000	
50.815756	696.000000	
50.840366	727.000000	
50.864975	720.000000	
50.889584	737.000000	
50.914193	718.000000	
50.938803	727.000000	
50.963412	729.000000	
50.988021	793.000000	
51.012630	687.000000	
51.037240	739.000000	
51.061849	777.000000	
51.086458	762.000000	
51.111067	816.000000	
51.135676	821.000000	
51.160286	814.000000	
51.184895	809.000000	
51.209504	777.000000	
51.234113	752.000000	
51.258723	724.000000	
51.283332	739.000000	
51.307941	773.000000	
51.332550	777.000000	
51.357160	727.000000	
51.381769	753.000000	
51.406378	752.000000	
51.430987	722.000000	
51.455597	702.000000	
51.480206	703.000000	
51.504815	720.000000	
51.529424	694.000000	
51.554034	677.000000	
51.578643	657.000000	
51.603252	713.000000	
51.627861	703.000000	
51.652471	730.000000	
51.677080	681.000000	
51.701689	696.000000	
51.726298	765.000000	
51.750908	686.000000	
51.775517	719.000000	
51.800126	737.000000	
51.824735	777.000000	
51.849344	780.000000	
51.873954	767.000000	
51.898563	753.000000	
51.923172	772.000000	
51.947781	867.000000	
51.972391	813.000000	
51.997000	857.000000	
52.021609	822.000000	
52.046218	799.000000	
52.070828	814.000000	
52.095437	783.000000	
52.120046	806.000000	
52.144655	854.000000	
52.169265	843.000000	
52.193874	773.000000	
52.218483	781.000000	
52.243092	821.000000	
52.267702	826.000000	
52.292311	737.000000	
52.316920	813.000000	
52.341529	718.000000	
52.366139	698.000000	
52.390748	683.000000	
52.415357	708.000000	
52.439966	725.000000	
52.464576	730.000000	
52.489185	677.000000	
52.513794	768.000000	
52.538403	732.000000	
52.563013	708.000000	
52.587622	689.000000	
52.612231	778.000000	
52.636840	727.000000	
52.661449	718.000000	
52.686059	771.000000	
52.710668	727.000000	
52.735277	718.000000	
52.759886	715.000000	
52.784496	707.000000	
52.809105	700.000000	
52.833714	713.000000	
52.858323	728.000000	
52.882933	710.000000	
52.907542	679.000000	
52.932151	688.000000	
52.956760	697.000000	
52.981370	759.000000	
53.005979	766.000000	
53.030588	798.000000	
53.055197	832.000000	
53.079807	813.000000	
53.104416	802.000000	
53.129025	868.000000	
53.153634	900.000000	
53.178244	840.000000	
53.202853	843.000000	
53.227462	821.000000	
53.252071	775.000000	
53.276681	780.000000	
53.301290	779.000000	
53.325899	803.000000	
53.350508	803.000000	
53.375117	744.000000	
53.399727	720.000000	
53.424336	746.000000	
53.448945	769.000000	
53.473554	742.000000	
53.498164	670.000000	
53.522773	706.000000	
53.547382	758.000000	
53.571991	709.000000	
53.596601	724.000000	
53.621210	716.000000	
53.645819	703.000000	
53.670428	718.000000	
53.695038	720.000000	
53.719647	701.000000	
53.744256	696.000000	
53.768865	771.000000	
53.793475	710.000000	
53.818084	719.000000	
53.842693	726.000000	
53.867302	699.000000	
53.891912	796.000000	
53.916521	715.000000	
53.941130	734.000000	
53.965739	735.000000	
53.990349	747.000000	
54.014958	713.000000	
54.039567	734.000000	
54.064176	773.000000	
54.088785	796.000000	
54.113395	743.000000	
54.138004	783.000000	
54.162613	797.000000	
54.187222	792.000000	
54.211832	835.000000	
54.236441	820.000000	
54.261050	794.000000	
54.285659	761.000000	
54.310269	786.000000	
54.334878	799.000000	
54.359487	868.000000	
54.384096	867.000000	
54.408706	891.000000	
54.433315	864.000000	
54.457924	823.000000	
54.482533	898.000000	
54.507143	915.000000	
54.531752	928.000000	
54.556361	960.000000	
54.580970	948.000000	
54.605580	921.000000	
54.630189	957.000000	
54.654798	1000.000000	
54.679407	1000.000000	
54.704017	984.000000	
54.728626	993.000000	
54.753235	955.000000	
54.777844	964.000000	
54.802453	914.000000	
54.827063	926.000000	
54.851672	890.000000	
54.876281	848.000000	
54.900890	903.000000	
54.925500	898.000000	
54.950109	852.000000	
54.974718	841.000000	
54.999327	771.000000	
55.023937	782.000000	
55.048546	785.000000	
55.073155	775.000000	
55.097764	780.000000	
55.122374	779.000000	
55.146983	750.000000	
55.171592	728.000000	
55.196201	726.000000	
55.220811	757.000000	
55.245420	778.000000	
55.270029	811.000000	
55.294638	755.000000	
55.319248	773.000000	
55.343857	787.000000	
55.368466	742.000000	
55.393075	802.000000	
55.417685	791.000000	
55.442294	742.000000	
55.466903	805.000000	
55.491512	782.000000	
55.516121	770.000000	
55.540731	765.000000	
55.565340	807.000000	
55.589949	749.000000	
55.614558	775.000000	
55.639168	715.000000	
55.663777	791.000000	
55.688386	716.000000	
55.712995	754.000000	
55.737605	739.000000	
55.762214	691.000000	
55.786823	727.000000	
55.811432	749.000000	
55.836042	696.000000	
55.860651	721.000000	
55.885260	753.000000	
55.909869	703.000000	
55.934479	704.000000	
55.959088	683.000000	
55.983697	665.000000	
56.008306	664.000000	
56.032916	683.000000	
56.057525	687.000000	
56.082134	690.000000	
56.106743	678.000000	
56.131353	688.000000	
56.155962	696.000000	
56.180571	708.000000	
56.205180	740.000000	
56.229789	689.000000	
56.254399	677.000000	
56.279008	633.000000	
56.303617	628.000000	
56.328226	660.000000	
56.352836	667.000000	
56.377445	623.000000	
56.402054	661.000000	
56.426663	714.000000	
56.451273	676.000000	
56.475882	704.000000	
56.500491	649.000000	
56.525100	680.000000	
56.549710	641.000000	
56.574319	668.000000	
56.598928	685.000000	
56.623537	720.000000	
56.648147	780.000000	
56.672756	715.000000	
56.697365	760.000000	
56.721974	774.000000	
56.746584	775.000000	
56.771193	756.000000	
56.795802	720.000000	
56.820411	791.000000	
56.845021	768.000000	
56.869630	788.000000	
56.894239	805.000000	
56.918848	822.000000	
56.943457	738.000000	
56.968067	694.000000	
56.992676	702.000000	
57.017285	740.000000	
57.041894	732.000000	
57.066504	719.000000	
57.091113	716.000000	
57.115722	685.000000	
57.140331	728.000000	
57.164941	663.000000	
57.189550	659.000000	
57.214159	658.000000	
57.238768	646.000000	
57.263378	636.000000	
57.287987	647.000000	
57.312596	618.000000	
57.337205	625.000000	
57.361815	592.000000	
57.386424	601.000000	
57.411033	609.000000	
57.435642	680.000000	
57.460252	625.000000	
57.484861	590.000000	
57.509470	586.000000	
57.534079	681.000000	
57.558689	618.000000	
57.583298	610.000000	
57.607907	622.000000	
57.632516	649.000000	
57.657126	578.000000	
57.681735	603.000000	
57.706344	611.000000	
57.730953	677.000000	
57.755562	624.000000	
57.780172	658.000000	
57.804781	600.000000	
57.829390	659.000000	
57.853999	648.000000	
57.878609	656.000000	
57.903218	680.000000	
57.927827	664.000000	
57.952436	682.000000	
57.977046	673.000000	
58.001655	630.000000	
58.026264	676.000000	
58.050873	668.000000	
58.075483	652.000000	
58.100092	625.000000	
58.124701	624.000000	
58.149310	603.000000	
58.173920	600.000000	
58.198529	582.000000	
58.223138	595.000000	
58.247747	568.000000	
58.272357	568.000000	
58.296966	566.000000	
58.321575	545.000000	
58.346184	545.000000	
58.370794	548.000000	
58.395403	583.000000	
58.420012	576.000000	
58.444621	574.000000	
58.469230	528.000000	
58.493840	521.000000	
58.518449	536.000000	
58.543058	553.000000	
58.567667	524.000000	
58.592277	548.000000	
58.616886	593.000000	
58.641495	514.000000	
58.666104	547.000000	
58.690714	570.000000	
58.715323	571.000000	
58.739932	516.000000	
58.764541	550.000000	
58.789151	531.000000	
58.813760	554.000000	
58.838369	573.000000	
58.862978	511.000000	
58.887588	531.000000	
58.912197	563.000000	
58.936806	618.000000	
58.961415	574.000000	
58.986025	589.000000	
59.010634	576.000000	
59.035243	558.000000	
59.059852	565.000000	
59.084462	590.000000	
59.109071	596.000000	
59.133680	592.000000	
59.158289	632.000000	
59.182898	590.000000	
59.207508	592.000000	
59.232117	606.000000	
59.256726	563.000000	
59.281335	604.000000	
59.305945	577.000000	
59.330554	542.000000	
59.355163	548.000000	
59.379772	631.000000	
59.404382	583.000000	
59.428991	586.000000	
59.453600	583.000000	
59.478209	622.000000	
59.502819	612.000000	
59.527428	590.000000	
59.552037	583.000000	
59.576646	573.000000	
59.601256	632.000000	
59.625865	620.000000	
59.650474	586.000000	
59.675083	604.000000	
59.699693	583.000000	
59.724302	544.000000	
59.748911	560.000000	
59.773520	581.000000	
59.798130	563.000000	
59.822739	565.000000	
59.847348	569.000000	
59.871957	561.000000	
59.896566	584.000000	
59.921176	565.000000	
59.945785	501.000000	
59.970394	545.000000	
59.995003	540.000000	
